SAMPLE;PACKAGE;FRAME;STATUS;PLETH;ADDON;CHECKSUM
1;1;1;129;38406;0;29
2;1;2;128;38420;94;136
3;1;3;128;38247;96;220
4;1;4;128;37924;45;101
5;1;5;130;37479;96;219
6;1;6;130;36933;0;87
7;1;7;130;36303;0;222
8;1;8;130;35614;0;43
9;1;9;130;34899;96;189
10;1;10;130;34199;96;254
11;1;11;130;33553;96;118
12;1;12;130;32994;0;228
13;1;13;130;32543;0;32
14;1;14;130;32214;0;213
15;1;15;128;32007;94;98
16;1;16;128;31914;96;6
17;1;17;128;31910;96;2
18;1;18;128;31959;0;211
19;1;19;128;32017;0;14
20;1;20;128;32051;0;48
21;1;21;128;32034;95;126
22;1;22;128;31959;0;211
23;1;23;128;31832;94;178
24;1;24;128;31671;0;178
25;1;25;128;31487;0;249
26;2;1;129;31294;0;57
27;2;2;128;31098;93;208
28;2;3;128;30904;96;16
29;2;4;128;30714;45;30
30;2;5;128;30534;96;157
31;2;6;128;30364;0;146
32;2;7;128;30210;0;248
33;2;8;128;30072;0;109
34;2;9;128;29950;96;82
35;2;10;128;29836;96;224
36;2;11;128;29729;96;117
37;2;12;128;29628;0;175
38;2;13;128;29534;0;81
39;2;14;128;29452;0;255
40;2;15;128;29396;94;36
41;2;16;128;29385;96;27
42;2;17;128;29450;96;93
43;2;18;128;29634;0;181
44;2;19;128;29989;0;26
45;2;20;128;30561;0;88
46;2;21;128;31372;95;229
47;2;22;128;32404;0;146
48;2;23;128;33590;94;151
49;2;24;128;34827;0;19
50;2;25;128;35992;0;164
51;3;1;129;36974;0;127
52;3;2;128;37697;93;177
53;3;3;128;38124;96;96
54;3;4;128;38264;45;186
55;3;5;128;38155;96;128
56;3;6;128;37854;0;241
57;3;7;130;37416;0;60
58;3;8;130;36884;0;38
59;3;9;130;36281;96;40
60;3;10;130;35620;96;145
61;3;11;130;34919;96;209
62;3;12;130;34204;0;163
63;3;13;130;33515;0;239
64;3;14;130;32894;0;128
65;3;15;130;32382;94;220
66;3;16;130;32001;96;96
67;3;17;128;31751;96;99
68;3;18;128;31617;0;124
69;3;19;128;31573;0;80
70;3;20;128;31587;0;94
71;3;21;128;31627;93;227
72;3;22;128;31665;0;172
73;3;23;128;31677;94;22
74;3;24;128;31650;0;157
75;3;25;128;31580;0;87
76;4;1;129;31471;0;234
77;4;2;128;31333;92;187
78;4;3;128;31174;96;31
79;4;4;128;31003;45;65
80;4;5;128;30829;96;197
81;4;6;128;30653;0;180
82;4;7;128;30480;0;7
83;4;8;128;30314;0;96
84;4;9;128;30155;96;32
85;4;10;128;30004;96;137
86;4;11;128;29859;96;247
87;4;12;128;29721;0;13
88;4;13;128;29592;0;139
89;4;14;128;29473;0;20
90;4;15;128;29367;93;6
91;4;16;128;29283;96;181
92;4;17;128;29232;96;130
93;4;18;128;29233;0;35
94;4;19;128;29324;0;126
95;4;20;128;29554;0;101
96;4;21;128;29981;93;111
97;4;22;128;30650;0;177
98;4;23;128;31570;94;171
99;4;24;128;32700;0;187
100;4;25;128;33952;0;164
101;5;1;129;35201;0;139
102;5;2;128;36319;92;72
103;5;3;128;37208;96;201
104;5;4;128;37811;45;243
105;5;5;128;38117;96;89
106;5;6;128;38154;0;31
107;5;7;128;37970;0;102
108;5;8;128;37617;0;3
109;5;9;130;37142;96;137
110;5;10;130;36580;96;84
111;5;11;130;35954;96;224
112;5;12;130;35283;0;222
113;5;13;130;34589;0;38
114;5;14;130;33903;0;117
115;5;15;130;33260;93;76
116;5;16;130;32696;96;25
117;5;17;130;32239;96;78
118;5;18;130;31907;0;161
119;5;19;128;31699;0;206
120;5;20;128;31601;0;108
121;5;21;128;31583;93;183
122;5;22;128;31615;0;122
123;5;23;128;31662;94;7
124;5;24;128;31701;0;208
125;5;25;128;31712;0;219
126;6;1;129;31689;0;197
127;6;2;128;31634;91;232
128;6;3;128;31554;96;157
129;6;4;128;31454;45;5
130;6;5;128;31336;96;194
131;6;6;128;31206;0;223
132;6;7;128;31068;0;85
133;6;8;128;30927;0;199
134;6;9;128;30788;96;156
135;6;10;128;30659;96;26
136;6;11;128;30539;96;162
137;6;12;128;30421;0;203
138;6;13;128;30298;0;80
139;6;14;128;30168;0;205
140;6;15;128;30031;92;160
141;6;16;128;29895;96;27
142;6;17;128;29773;96;161
143;6;18;128;29684;0;231
144;6;19;128;29659;0;206
145;6;20;128;29738;0;30
146;6;21;128;29974;93;104
147;6;22;128;30423;0;205
148;6;23;128;31111;94;222
149;6;24;128;32028;0;25
150;6;25;128;33110;0;87
151;7;1;129;34257;0;215
152;7;2;128;35351;91;124
153;7;3;128;36288;96;45
154;7;4;128;36999;45;196
155;7;5;128;37454;96;192
156;7;6;128;37655;0;42
157;7;7;128;37632;0;19
158;7;8;128;37426;0;68
159;7;9;128;37080;96;72
160;7;10;130;36631;96;136
161;7;11;130;36110;96;125
162;7;12;130;35538;0;222
163;7;13;130;34930;0;124
164;7;14;130;34308;0;12
165;7;15;130;33700;92;5
166;7;16;130;33136;96;211
167;7;17;130;32653;96;238
168;7;18;130;32273;0;17
169;7;19;130;32012;0;11
170;7;20;128;31861;0;113
171;7;21;128;31803;91;146
172;7;22;128;31809;0;61
173;7;23;128;31847;92;191
174;7;24;128;31885;0;137
175;7;25;128;31902;0;154
176;8;1;129;31889;0;142
177;8;2;128;31845;90;187
178;8;3;128;31776;96;124
179;8;4;128;31689;45;241
180;8;5;128;31588;96;191
181;8;6;128;31474;0;236
182;8;7;128;31348;0;110
183;8;8;128;31207;0;224
184;8;9;128;31057;96;170
185;8;10;128;30900;96;12
186;8;11;128;30745;96;113
187;8;12;128;30595;0;122
188;8;13;128;30458;0;240
189;8;14;128;30335;0;117
190;8;15;128;30230;92;104
191;8;16;128;30141;96;18
192;8;17;128;30068;96;201
193;8;18;128;30017;0;54
194;8;19;128;30003;0;40
195;8;20;128;30062;0;99
196;8;21;128;30249;91;122
197;8;22;128;30629;0;156
198;8;23;128;31244;92;98
199;8;24;128;32099;0;96
200;8;25;128;33141;0;118
201;9;1;129;34270;0;228
202;9;2;128;35363;90;135
203;9;3;128;36307;96;64
204;9;4;128;37021;45;218
205;9;5;128;37475;96;213
206;9;6;128;37680;0;67
207;9;7;128;37673;0;60
208;9;8;128;37499;0;141
209;9;9;128;37204;96;197
210;9;10;130;36821;96;70
211;9;11;130;36373;96;133
212;9;12;130;35878;0;52
213;9;13;130;35351;0;35
214;9;14;130;34810;0;3
215;9;15;130;34279;92;74
216;9;16;130;33777;96;86
217;9;17;130;33330;96;150
218;9;18;130;32955;0;189
219;9;19;130;32665;0;154
220;9;20;128;32458;0;200
221;9;21;128;32321;91;154
222;9;22;128;32238;0;235
223;9;23;128;32189;92;22
224;9;24;128;32151;0;148
225;9;25;128;32110;0;107
226;10;1;129;32059;0;57
227;10;2;128;31991;89;76
228;10;3;128;31903;96;251
229;10;4;128;31797;45;94
230;10;5;128;31673;96;20
231;10;6;128;31534;0;41
232;10;7;128;31380;0;142
233;10;8;128;31215;0;232
234;10;9;128;31038;96;151
235;10;10;128;30856;96;224
236;10;11;128;30676;95;42
237;10;12;128;30506;0;33
238;10;13;128;30353;0;135
239;10;14;128;30216;0;254
240;10;15;128;30098;91;226
241;10;16;128;29996;96;129
242;10;17;128;29911;96;43
243;10;18;128;29848;0;140
244;10;19;128;29831;0;123
245;10;20;128;29896;0;188
246;10;21;128;30100;91;228
247;10;22;128;30492;0;19
248;10;23;128;31105;92;214
249;10;24;128;31932;0;184
250;10;25;128;32915;0;147
251;11;1;129;33958;0;171
252;11;2;128;34947;89;228
253;11;3;128;35783;96;50
254;11;4;128;36396;45;103
255;11;5;128;36763;96;10
256;11;6;128;36889;0;41
257;11;7;128;36809;0;216
258;11;8;128;36565;0;227
259;11;9;130;36197;96;212
260;11;10;130;35740;96;9
261;11;11;130;35220;95;254
262;11;12;130;34661;0;110
263;11;13;130;34083;0;42
264;11;14;130;33517;0;241
265;11;15;130;32993;91;62
266;11;16;130;32538;96;123
267;11;17;130;32172;96;11
268;11;18;130;31905;0;159
269;11;19;128;31735;0;242
270;11;20;128;31650;0;157
271;11;21;128;31635;91;233
272;11;22;128;31664;0;171
273;11;23;128;31717;92;60
274;11;24;128;31770;0;22
275;11;25;128;31809;0;61
276;12;1;129;31821;0;74
277;12;2;128;31805;89;146
278;12;3;128;31764;96;112
279;12;4;128;31701;45;253
280;12;5;128;31620;96;223
281;12;6;128;31525;0;32
282;12;7;128;31419;0;181
283;12;8;128;31303;0;65
284;12;9;128;31181;96;38
285;12;10;128;31054;96;167
286;12;11;128;30926;95;37
287;12;12;128;30797;0;69
288;12;13;128;30672;0;199
289;12;14;128;30551;0;78
290;12;15;128;30441;91;58
291;12;16;128;30347;96;225
292;12;17;128;30285;96;163
293;12;18;128;30282;0;64
294;12;19;128;30388;0;170
295;12;20;128;30658;0;185
296;12;21;128;31140;89;246
297;12;22;128;31851;0;103
298;12;23;128;32761;91;83
299;12;24;128;33791;0;2
300;12;25;128;34829;0;21
301;13;1;129;35761;0;189
302;13;2;128;36495;89;246
303;13;3;128;36984;96;232
304;13;4;128;37219;45;161
305;13;5;128;37226;96;219
306;13;6;128;37047;0;199
307;13;7;128;36730;0;137
308;13;8;130;36310;0;229
309;13;9;130;35814;96;83
310;13;10;130;35266;96;45
311;13;11;130;34688;95;232
312;13;12;130;34107;0;66
313;13;13;130;33555;0;24
314;13;14;130;33065;0;44
315;13;15;130;32663;91;243
316;13;16;130;32363;96;203
317;13;17;130;32167;96;6
318;13;18;128;32060;0;57
319;13;19;128;32020;0;17
320;13;20;128;32020;0;17
321;13;21;128;32036;89;122
322;13;22;128;32047;0;44
323;13;23;128;32046;91;134
324;13;24;128;32024;0;21
325;13;25;128;31984;0;236
326;14;1;129;31926;0;179
327;14;2;128;31852;89;193
328;14;3;128;31765;96;113
329;14;4;128;31668;45;220
330;14;5;128;31566;96;169
331;14;6;128;31460;0;222
332;14;7;128;31354;0;116
333;14;8;128;31247;0;9
334;14;9;128;31141;96;254
335;14;10;128;31034;96;147
336;14;11;128;30925;96;37
337;14;12;128;30817;0;89
338;14;13;128;30715;0;242
339;14;14;128;30624;0;151
340;14;15;128;30557;91;175
341;14;16;128;30541;96;164
342;14;17;128;30620;96;243
343;14;18;128;30855;0;127
344;14;19;128;31295;0;57
345;14;20;128;31959;0;211
346;14;21;128;32822;89;143
347;14;22;128;33814;0;26
348;14;23;128;34830;91;113
349;14;24;128;35764;0;191
350;14;25;128;36533;0;195
351;15;1;129;37082;0;235
352;15;2;128;37392;89;123
353;15;3;128;37472;96;210
354;15;4;128;37347;45;33
355;15;5;128;37053;96;45
356;15;6;130;36626;0;35
357;15;7;130;36099;0;18
358;15;8;130;35504;0;188
359;15;9;130;34873;96;163
360;15;10;130;34243;96;42
361;15;11;130;33649;96;214
362;15;12;130;33125;0;104
363;15;13;130;32696;0;185
364;15;14;130;32371;0;115
365;15;15;130;32147;91;237
366;15;16;128;32012;96;105
367;15;17;128;31947;96;39
368;15;18;128;31936;0;188
369;15;19;128;31963;0;215
370;15;20;128;32012;0;9
371;15;21;128;32068;89;154
372;15;22;128;32115;0;112
373;15;23;128;32145;91;233
374;15;24;128;32154;0;151
375;15;25;128;32139;0;136
376;16;1;129;32102;0;100
377;16;2;128;32047;90;134
378;16;3;128;31972;96;64
379;16;4;128;31876;45;173
380;16;5;128;31762;96;110
381;16;6;128;31636;0;143
382;16;7;128;31499;0;6
383;16;8;128;31356;0;118
384;16;9;128;31212;96;69
385;16;10;128;31075;96;188
386;16;11;128;30956;95;67
387;16;12;128;30877;0;149
388;16;13;128;30865;0;137
389;16;14;128;30960;0;232
390;16;15;128;31207;91;59
391;16;16;128;31643;96;246
392;16;17;128;32274;96;112
393;16;18;128;33071;0;48
394;16;19;128;33972;0;184
395;16;20;128;34886;0;78
396;16;21;128;35723;90;240
397;16;22;128;36406;0;68
398;16;23;128;36886;91;129
399;16;24;128;37140;0;37
400;16;25;128;37167;0;64
401;17;1;129;36982;0;135
402;17;2;128;36620;90;117
403;17;3;130;36125;96;140
404;17;4;130;35542;45;15
405;17;5;130;34923;96;213
406;17;6;130;34319;0;23
407;17;7;130;33774;0;243
408;17;8;130;33317;0;41
409;17;9;130;32969;96;43
410;17;10;130;32733;96;62
411;17;11;130;32598;95;182
412;17;12;130;32543;0;32
413;17;13;128;32545;0;32
414;17;14;128;32581;0;68
415;17;15;128;32628;91;206
416;17;16;128;32668;96;251
417;17;17;128;32690;96;17
418;17;18;128;32687;0;174
419;17;19;128;32655;0;142
420;17;20;128;32598;0;85
421;17;21;128;32519;90;96
422;17;22;128;32424;0;166
423;17;23;128;32317;91;150
424;17;24;128;32198;0;195
425;17;25;128;32067;0;64
426;18;1;129;31923;0;176
427;18;2;128;31767;90;109
428;18;3;128;31601;96;204
429;18;4;128;31431;45;238
430;18;5;128;31265;96;123
431;18;6;128;31109;0;126
432;18;7;128;30971;0;243
433;18;8;128;30863;0;135
434;18;9;128;30809;96;177
435;18;10;128;30847;96;215
436;18;11;128;31029;96;142
437;18;12;128;31400;0;162
438;18;13;128;31981;0;233
439;18;14;128;32751;0;238
440;18;15;128;33645;91;203
441;18;16;128;34561;96;104
442;18;17;128;35390;96;168
443;18;18;128;36046;0;218
444;18;19;128;36469;0;131
445;18;20;128;36642;0;49
446;18;21;128;36577;90;73
447;18;22;128;36301;0;218
448;18;23;128;35850;91;113
449;18;24;130;35263;0;202
450;18;25;130;34586;0;35
451;19;1;131;33867;0;82
452;19;2;130;33157;91;227
453;19;3;130;32509;96;93
454;19;4;130;31965;45;8
455;19;5;130;31551;96;156
456;19;6;130;31275;0;39
457;19;7;130;31126;0;145
458;19;8;130;31079;0;98
459;19;9;128;31105;96;218
460;19;10;128;31173;96;30
461;19;11;128;31256;95;113
462;19;12;128;31334;0;96
463;19;13;128;31397;0;159
464;19;14;128;31437;0;199
465;19;15;128;31450;91;47
466;19;16;128;31436;96;38
467;19;17;128;31395;96;253
468;19;18;128;31325;0;87
469;19;19;128;31228;0;245
470;19;20;128;31110;0;127
471;19;21;128;30979;90;86
472;19;22;128;30840;0;112
473;19;23;128;30697;91;59
474;19;24;128;30554;0;81
475;19;25;128;30411;0;193
476;20;1;129;30273;0;56
477;20;2;128;30152;91;24
478;20;3;128;30070;96;203
479;20;4;128;30070;45;152
480;20;5;128;30214;96;92
481;20;6;128;30560;0;87
482;20;7;128;31142;0;159
483;20;8;128;31954;0;206
484;20;9;128;32940;96;12
485;20;10;128;33998;96;50
486;20;11;128;35008;95;39
487;20;12;128;35864;0;36
488;20;13;128;36488;0;150
489;20;14;128;36845;0;252
490;20;15;128;36933;91;176
491;20;16;128;36786;96;33
492;20;17;128;36448;96;206
493;20;18;130;35969;0;143
494;20;19;130;35391;0;75
495;20;20;130;34751;0;200
496;20;21;130;34080;91;130
497;20;22;130;33411;0;135
498;20;23;130;32777;91;102
499;20;24;130;32213;0;212
500;20;25;130;31749;0;3
501;21;1;131;31398;0;163
502;21;2;130;31163;92;18
503;21;3;128;31032;96;145
504;21;4;128;30986;45;48
505;21;5;128;30996;96;109
506;21;6;128;31038;0;55
507;21;7;128;31086;0;103
508;21;8;128;31123;0;140
509;21;9;128;31137;96;250
510;21;10;128;31121;96;234
511;21;11;128;31073;95;185
512;21;12;128;30995;0;12
513;21;13;128;30890;0;162
514;21;14;128;30764;0;36
515;21;15;128;30622;92;241
516;21;16;128;30472;96;95
517;21;17;128;30320;96;198
518;21;18;128;30171;0;208
519;21;19;128;30026;0;63
520;21;20;128;29889;0;181
521;21;21;128;29758;91;141
522;21;22;128;29641;0;188
523;21;23;128;29559;91;197
524;21;24;128;29556;0;103
525;21;25;128;29684;0;231
526;22;1;129;30000;0;38
527;22;2;128;30533;92;152
528;22;3;128;31268;96;126
529;22;4;128;32139;45;181
530;22;5;128;33045;96;118
531;22;6;128;33878;0;90
532;22;7;128;34548;0;250
533;22;8;128;35005;0;197
534;22;9;128;35241;96;18
535;22;10;128;35276;96;53
536;22;11;128;35147;95;179
537;22;12;128;34894;0;86
538;22;13;130;34556;0;4
539;22;14;130;34158;0;117
540;22;15;130;33721;92;26
541;22;16;130;33265;96;84
542;22;17;130;32806;96;136
543;22;18;130;32365;0;109
544;22;19;130;31962;0;216
545;22;20;130;31620;0;129
546;22;21;130;31352;91;207
547;22;22;130;31168;0;187
548;22;23;128;31064;91;172
549;22;24;128;31030;0;47
550;22;25;128;31049;0;66
551;23;1;129;31101;0;119
552;23;2;128;31166;94;21
553;23;3;128;31225;96;82
554;23;4;128;31265;45;72
555;23;5;128;31278;96;136
556;23;6;128;31262;0;24
557;23;7;128;31217;0;234
558;23;8;128;31147;0;164
559;23;9;128;31059;96;172
560;23;10;128;30957;96;69
561;23;11;128;30848;95;215
562;23;12;128;30735;0;7
563;23;13;128;30623;0;150
564;23;14;128;30517;0;44
565;23;15;128;30422;92;40
566;23;16;128;30339;96;217
567;23;17;128;30274;96;152
568;23;18;128;30239;0;21
569;23;19;128;30260;0;42
570;23;20;128;30379;0;161
571;23;21;128;30643;91;5
572;23;22;128;31078;0;95
573;23;23;128;31681;91;23
574;23;24;128;32405;0;147
575;23;25;128;33162;0;139
576;24;1;129;33853;0;66
577;24;2;128;34394;94;190
578;24;3;128;34738;96;25
579;24;4;128;34881;45;118
580;24;5;128;34848;96;136
581;24;6;128;34683;0;130
582;24;7;128;34430;0;132
583;24;8;130;34126;0;85
584;24;9;130;33792;96;102
585;24;10;130;33444;96;8
586;24;11;130;33089;95;163
587;24;12;130;32736;0;225
588;24;13;130;32399;0;143
589;24;14;130;32097;0;96
590;24;15;130;31846;92;192
591;24;16;130;31659;96;8
592;24;17;130;31545;96;150
593;24;18;128;31497;0;4
594;24;19;128;31504;0;11
595;24;20;128;31553;0;60
596;24;21;128;31632;91;230
597;24;22;128;31724;0;231
598;24;23;128;31812;91;155
599;24;24;128;31885;0;137
600;24;25;128;31931;0;183
601;25;1;129;31944;0;197
602;25;2;128;31926;95;17
603;25;3;128;31881;95;228
604;25;4;128;31816;45;113
605;25;5;128;31736;95;82
606;25;6;128;31650;0;157
607;25;7;128;31560;0;67
608;25;8;128;31470;0;232
609;25;9;128;31384;95;241
610;25;10;128;31302;95;159
611;25;11;128;31226;94;81
612;25;12;128;31160;0;177
613;25;13;128;31110;0;127
614;25;14;128;31094;0;111
615;25;15;128;31139;93;249
616;25;16;128;31285;96;143
617;25;17;128;31571;96;174
618;25;18;128;32016;0;13
619;25;19;128;32601;0;88
620;25;20;128;33268;0;245
621;25;21;128;33929;95;236
622;25;22;128;34494;0;196
623;25;23;128;34893;93;178
624;25;24;128;35099;0;36
625;25;25;128;35126;0;63
626;26;1;129;35009;0;202
627;26;2;128;34789;95;75
628;26;3;128;34506;95;47
629;26;4;130;34188;45;192
630;26;5;130;33852;95;161
631;26;6;130;33507;0;231
632;26;7;130;33166;0;145
633;26;8;130;32839;0;73
634;26;9;130;32539;95;123
635;26;10;130;32285;95;124
636;26;11;130;32094;94;187
637;26;12;130;31974;0;228
638;26;13;130;31926;0;180
639;26;14;128;31942;0;194
640;26;15;128;32007;93;97
641;26;16;128;32100;96;193
642;26;17;128;32202;96;39
643;26;18;128;32297;0;39
644;26;19;128;32373;0;115
645;26;20;128;32424;0;166
646;26;21;128;32444;95;25
647;26;22;128;32436;0;178
648;26;23;128;32404;93;239
649;26;24;128;32352;0;94
650;26;25;128;32287;0;29
651;27;1;129;32212;0;210
652;27;2;128;32128;96;221
653;27;3;128;32039;95;131
654;27;4;128;31947;45;244
655;27;5;128;31854;95;201
656;27;6;128;31764;0;16
657;27;7;128;31682;0;189
658;27;8;128;31612;0;119
659;27;9;128;31558;95;160
660;27;10;128;31531;95;133
661;27;11;128;31548;94;149
662;27;12;128;31641;0;148
663;27;13;128;31840;0;92
664;27;14;128;32174;0;171
665;27;15;128;32647;94;228
666;27;16;128;33225;96;42
667;27;17;128;33841;96;149
668;27;18;128;34414;0;116
669;27;19;128;34865;0;57
670;27;20;128;35146;0;83
671;27;21;128;35244;95;20
672;27;22;128;35181;0;118
673;27;23;128;34999;93;28
674;27;24;128;34737;0;184
675;27;25;130;34427;0;131
676;28;1;131;34096;0;56
677;28;2;130;33756;97;66
678;28;3;130;33419;95;238
679;28;4;130;33093;45;117
680;28;5;130;32791;95;120
681;28;6;130;32528;0;17
682;28;7;130;32321;0;65
683;28;8;130;32184;0;183
684;28;9;130;32121;95;215
685;28;10;128;32125;95;217
686;28;11;128;32184;94;19
687;28;12;128;32279;0;21
688;28;13;128;32389;0;131
689;28;14;128;32497;0;239
690;28;15;128;32591;95;173
691;28;16;128;32658;95;240
692;28;17;128;32695;96;22
693;28;18;128;32699;0;186
694;28;19;128;32675;0;162
695;28;20;128;32627;0;114
696;28;21;128;32562;95;144
697;28;22;128;32487;0;229
698;28;23;128;32404;93;239
699;28;24;128;32316;0;58
700;28;25;128;32226;0;223
701;29;1;129;32139;0;137
702;29;2;128;32055;97;149
703;29;3;128;31976;95;67
704;29;4;128;31903;45;200
705;29;5;128;31839;95;186
706;29;6;128;31788;0;40
707;29;7;128;31756;0;8
708;29;8;128;31754;0;6
709;29;9;128;31801;95;148
710;29;10;128;31929;95;20
711;29;11;128;32165;94;0
712;29;12;128;32531;0;18
713;29;13;128;33022;0;254
714;29;14;128;33597;0;64
715;29;15;128;34180;95;232
716;29;16;128;34688;95;230
717;29;17;128;35053;95;84
718;29;18;128;35240;0;177
719;29;19;128;35250;0;187
720;29;20;128;35118;0;55
721;29;21;128;34886;97;175
722;29;22;128;34598;0;45
723;29;23;130;34285;95;83
724;29;24;130;33967;0;181
725;29;25;130;33655;0;124
726;30;1;131;33348;0;73
727;30;2;130;33053;97;129
728;30;3;130;32780;95;109
729;30;4;130;32545;45;79
730;30;5;130;32367;95;206
731;30;6;130;32261;0;5
732;30;7;130;32233;0;232
733;30;8;128;32274;0;16
734;30;9;128;32364;95;201
735;30;10;128;32480;95;61
736;30;11;128;32599;94;180
737;30;12;128;32701;0;188
738;30;13;128;32776;0;8
739;30;14;128;32821;0;53
740;30;15;128;32837;95;164
741;30;16;128;32829;95;156
742;30;17;128;32802;95;129
743;30;18;128;32759;0;246
744;30;19;128;32705;0;192
745;30;20;128;32643;0;130
746;30;21;128;32573;97;157
747;30;22;128;32495;0;237
748;30;23;128;32415;95;252
749;30;24;128;32332;0;74
750;30;25;128;32247;0;244
751;31;1;129;32167;0;165
752;31;2;128;32094;97;188
753;31;3;128;32034;95;126
754;31;4;128;31988;45;29
755;31;5;128;31964;95;55
756;31;6;128;31966;0;218
757;31;7;128;32009;0;6
758;31;8;128;32113;0;110
759;31;9;128;32310;95;147
760;31;10;128;32618;95;200
761;31;11;128;33039;94;110
762;31;12;128;33536;0;3
763;31;13;128;34051;0;8
764;31;14;128;34513;0;215
765;31;15;128;34859;95;146
766;31;16;128;35050;95;81
767;31;17;128;35087;95;119
768;31;18;128;34990;0;182
769;31;19;128;34792;0;239
770;31;20;128;34530;0;232
771;31;21;130;34231;97;31
772;31;22;130;33914;0;128
773;31;23;130;33590;95;154
774;31;24;130;33268;0;247
775;31;25;130;32962;0;196
776;32;1;131;32689;0;179
777;32;2;130;32468;97;53
778;32;3;130;32320;95;159
779;32;4;130;32249;45;37
780;32;5;130;32250;95;88
781;32;6;128;32309;0;51
782;32;7;128;32406;0;148
783;32;8;128;32520;0;7
784;32;9;128;32633;95;215
785;32;10;128;32733;95;59
786;32;11;128;32812;94;138
787;32;12;128;32862;0;94
788;32;13;128;32884;0;116
789;32;14;128;32880;0;112
790;32;15;128;32853;96;181
791;32;16;128;32808;95;135
792;32;17;128;32751;95;77
793;32;18;128;32686;0;173
794;32;19;128;32612;0;99
795;32;20;128;32532;0;19
796;32;21;128;32447;97;30
797;32;22;128;32363;0;105
798;32;23;128;32281;95;118
799;32;24;128;32204;0;201
800;32;25;128;32135;0;132
801;33;1;129;32077;0;75
802;33;2;128;32031;97;125
803;33;3;128;32006;95;98
804;33;4;128;32015;45;57
805;33;5;128;32081;95;173
806;33;6;128;32233;0;230
807;33;7;128;32493;0;235
808;33;8;128;32866;0;98
809;33;9;128;33330;95;147
810;33;10;128;33831;95;138
811;33;11;128;34298;94;93
812;33;12;128;34666;0;113
813;33;13;128;34889;0;81
814;33;14;128;34953;0;145
815;33;15;128;34874;96;162
816;33;16;128;34686;95;228
817;33;17;128;34427;95;224
818;33;18;130;34127;0;86
819;33;19;130;33810;0;24
820;33;20;130;33492;0;216
821;33;21;130;33179;97;255
822;33;22;130;32879;0;113
823;33;23;130;32607;95;191
824;33;24;130;32378;0;122
825;33;25;130;32210;0;209
826;34;1;131;32112;0;112
827;34;2;130;32088;97;184
828;34;3;128;32130;94;221
829;34;4;128;32222;45;8
830;34;5;128;32341;94;177
831;34;6;128;32465;0;207
832;34;7;128;32578;0;65
833;34;8;128;32664;0;151
834;34;9;128;32714;94;39
835;34;10;128;32728;94;53
836;34;11;128;32711;94;36
837;34;12;128;32671;0;158
838;34;13;128;32614;0;101
839;34;14;128;32547;0;34
840;34;15;128;32472;96;54
841;34;16;128;32393;95;230
842;34;17;128;32307;95;144
843;34;18;128;32221;0;218
844;34;19;128;32136;0;133
845;34;20;128;32056;0;53
846;34;21;128;31983;97;76
847;34;22;128;31918;0;170
848;34;23;128;31864;96;212
849;34;24;128;31823;0;75
850;34;25;128;31804;0;56
851;35;1;129;31817;0;70
852;35;2;128;31886;97;235
853;35;3;128;32040;94;131
854;35;4;128;32299;45;86
855;35;5;128;32667;94;248
856;35;6;128;33124;0;101
857;35;7;128;33618;0;85
858;35;8;128;34082;0;39
859;35;9;128;34454;94;250
860;35;10;128;34690;94;231
861;35;11;128;34777;94;62
862;35;12;128;34728;0;175
863;35;13;128;34571;0;18
864;35;14;128;34337;0;39
865;35;15;130;34058;96;113
866;35;16;130;33753;95;61
867;35;17;130;33435;95;254
868;35;18;130;33120;0;99
869;35;19;130;32822;0;56
870;35;20;130;32555;0;44
871;35;21;130;32336;97;177
872;35;22;130;32183;0;182
873;35;23;130;32101;96;196
874;35;24;130;32087;0;86
875;35;25;128;32130;0;127
876;36;1;129;32215;0;213
877;36;2;128;32323;97;162
878;36;3;128;32437;94;17
879;36;4;128;32541;45;73
880;36;5;128;32625;94;206
881;36;6;128;32682;0;169
882;36;7;128;32712;0;199
883;36;8;128;32712;0;199
884;36;9;128;32690;94;15
885;36;10;128;32649;94;230
886;36;11;128;32593;94;174
887;36;12;128;32529;0;16
888;36;13;128;32460;0;202
889;36;14;128;32389;0;131
890;36;15;128;32319;96;157
891;36;16;128;32251;95;87
892;36;17;128;32187;95;23
893;36;18;128;32127;0;124
894;36;19;128;32072;0;69
895;36;20;128;32021;0;18
896;36;21;128;31977;97;70
897;36;22;128;31943;0;195
898;36;23;128;31926;96;18
899;36;24;128;31941;0;193
900;36;25;128;32014;0;11
901;37;1;129;32175;0;173
902;37;2;128;32453;97;36
903;37;3;128;32854;94;180
904;37;4;128;33356;45;123
905;37;5;128;33905;94;211
906;37;6;128;34430;0;132
907;37;7;128;34858;0;50
908;37;8;128;35143;0;80
909;37;9;128;35267;94;42
910;37;10;128;35246;94;21
911;37;11;128;35110;94;141
912;37;12;128;34896;0;88
913;37;13;130;34635;0;84
914;37;14;130;34351;0;55
915;37;15;130;34056;96;111
916;37;16;130;33759;95;67
917;37;17;130;33467;95;30
918;37;18;130;33193;0;172
919;37;19;130;32956;0;190
920;37;20;130;32772;0;6
921;37;21;130;32656;97;242
922;37;22;130;32609;0;98
923;37;23;128;32624;96;207
924;37;24;128;32686;0;173
925;37;25;128;32775;0;7
926;38;1;129;32874;0;107
927;38;2;128;32968;96;40
928;38;3;128;33045;94;116
929;38;4;128;33100;45;122
930;38;5;128;33126;94;197
931;38;6;128;33124;0;101
932;38;7;128;33095;0;72
933;38;8;128;33045;0;22
934;38;9;128;32978;94;48
935;38;10;128;32901;94;227
936;38;11;128;32816;94;142
937;38;12;128;32732;0;219
938;38;13;128;32648;0;135
939;38;14;128;32564;0;51
940;38;15;128;32480;96;62
941;38;16;128;32401;95;238
942;38;17;128;32325;95;162
943;38;18;128;32253;0;250
944;38;19;128;32188;0;185
945;38;20;128;32137;0;134
946;38;21;128;32107;96;200
947;38;22;128;32114;0;111
948;38;23;128;32183;96;20
949;38;24;128;32349;0;91
950;38;25;128;32641;0;128
951;39;1;129;33063;0;41
952;39;2;128;33594;96;157
953;39;3;128;34179;94;230
954;39;4;128;34747;45;239
955;39;5;128;35223;94;254
956;39;6;128;35556;0;238
957;39;7;128;35725;0;152
958;39;8;128;35741;0;168
959;39;9;128;35632;94;153
960;39;10;128;35434;94;210
961;39;11;130;35178;94;211
962;39;12;130;34892;0;86
963;39;13;130;34590;0;39
964;39;14;130;34278;0;237
965;39;15;130;33964;96;18
966;39;16;130;33662;95;226
967;39;17;130;33386;95;205
968;39;18;130;33154;0;133
969;39;19;130;32983;0;217
970;39;20;130;32880;0;114
971;39;21;128;32842;96;170
972;39;22;128;32860;0;92
973;39;23;128;32916;96;244
974;39;24;128;32992;0;224
975;39;25;128;33069;0;46
976;40;1;129;33134;0;112
977;40;2;128;33177;96;250
978;40;3;128;33189;94;4
979;40;4;128;33172;45;194
980;40;5;128;33129;94;200
981;40;6;128;33066;0;43
982;40;7;128;32986;0;218
983;40;8;128;32899;0;131
984;40;9;128;32806;94;132
985;40;10;128;32707;94;32
986;40;11;128;32606;94;187
987;40;12;128;32505;0;247
988;40;13;128;32405;0;147
989;40;14;128;32309;0;51
990;40;15;128;32217;96;54
991;40;16;128;32130;95;222
992;40;17;128;32048;95;140
993;40;18;128;31978;0;230
994;40;19;128;31926;0;178
995;40;20;128;31915;0;167
996;40;21;128;31977;96;69
997;40;22;128;32156;0;153
998;40;23;128;32481;96;63
999;40;24;128;32957;0;189
1000;40;25;128;33554;0;21
1001;41;1;129;34209;0;167
1002;41;2;128;34839;96;127
1003;41;3;128;35365;94;141
1004;41;4;128;35738;45;210
1005;41;5;128;35939;94;205
1006;41;6;128;35980;0;152
1007;41;7;128;35887;0;59
1008;41;8;128;35697;0;124
1009;41;9;128;35441;94;217
1010;41;10;130;35147;94;180
1011;41;11;130;34825;94;113
1012;41;12;130;34491;0;195
1013;41;13;130;34154;0;113
1014;41;14;130;33829;0;43
1015;41;15;130;33528;96;92
1016;41;16;130;33268;95;86
1017;41;17;130;33060;95;134
1018;41;18;130;32915;0;149
1019;41;19;130;32831;0;65
1020;41;20;128;32801;0;33
1021;41;21;128;32815;96;143
1022;41;22;128;32858;0;90
1023;41;23;128;32912;96;240
1024;41;24;128;32960;0;192
1025;41;25;128;32987;0;219
1026;42;1;129;32986;0;219
1027;42;2;128;32955;96;27
1028;42;3;128;32896;94;222
1029;42;4;128;32815;45;92
1030;42;5;128;32718;94;43
1031;42;6;128;32610;0;97
1032;42;7;128;32496;0;238
1033;42;8;128;32379;0;121
1034;42;9;128;32260;94;96
1035;42;10;128;32143;94;234
1036;42;11;128;32026;95;118
1037;42;12;128;31912;0;164
1038;42;13;128;31802;0;54
1039;42;14;128;31698;0;205
1040;42;15;128;31604;95;206
1041;42;16;128;31523;95;125
1042;42;17;128;31468;95;69
1043;42;18;128;31459;0;221
1044;42;19;128;31534;0;41
1045;42;20;128;31736;0;243
1046;42;21;128;32098;96;191
1047;42;22;128;32624;0;111
1048;42;23;128;33280;96;98
1049;42;24;128;33993;0;205
1050;42;25;128;34677;0;124
1051;43;1;129;35252;0;190
1052;43;2;128;35664;96;187
1053;43;3;128;35896;94;162
1054;43;4;128;35962;45;179
1055;43;5;128;35885;94;151
1056;43;6;128;35700;0;127
1057;43;7;128;35441;0;123
1058;43;8;130;35132;0;71
1059;43;9;130;34789;94;76
1060;43;10;130;34424;94;222
1061;43;11;130;34050;95;104
1062;43;12;130;33680;0;149
1063;43;13;130;33330;0;54
1064;43;14;130;33021;0;255
1065;43;15;130;32773;95;102
1066;43;16;130;32595;95;179
1067;43;17;130;32489;95;72
1068;43;18;128;32449;0;191
1069;43;19;128;32457;0;199
1070;43;20;128;32494;0;236
1071;43;21;128;32539;96;122
1072;43;22;128;32576;0;63
1073;43;23;128;32594;95;176
1074;43;24;128;32587;0;74
1075;43;25;128;32552;0;39
1076;44;1;129;32494;0;237
1077;44;2;128;32416;95;253
1078;44;3;128;32321;94;157
1079;44;4;128;32215;45;1
1080;44;5;128;32100;94;191
1081;44;6;128;31980;0;232
1082;44;7;128;31856;0;108
1083;44;8;128;31732;0;239
1084;44;9;128;31607;94;208
1085;44;10;128;31486;94;86
1086;44;11;128;31369;95;226
1087;44;12;128;31259;0;21
1088;44;13;128;31158;0;175
1089;44;14;128;31071;0;88
1090;44;15;128;31007;95;119
1091;44;16;128;30991;94;102
1092;44;17;128;31062;95;174
1093;44;18;128;31268;0;30
1094;44;19;128;31639;0;146
1095;44;20;128;32185;0;182
1096;44;21;128;32871;96;199
1097;44;22;128;33631;0;98
1098;44;23;128;34377;95;174
1099;44;24;128;35026;0;218
1100;44;25;128;35519;0;201
1101;45;1;129;35826;0;254
1102;45;2;128;35949;95;216
1103;45;3;128;35913;94;179
1104;45;4;128;35751;45;223
1105;45;5;128;35496;94;16
1106;45;6;130;35179;0;118
1107;45;7;130;34819;0;13
1108;45;8;130;34430;0;134
1109;45;9;130;34025;94;77
1110;45;10;130;33621;94;184
1111;45;11;130;33239;95;57
1112;45;12;130;32898;0;132
1113;45;13;130;32617;0;106
1114;45;14;130;32409;0;153
1115;45;15;130;32277;95;116
1116;45;16;128;32215;94;50
1117;45;17;128;32207;95;43
1118;45;18;128;32235;0;232
1119;45;19;128;32277;0;19
1120;45;20;128;32316;0;58
1121;45;21;128;32336;96;174
1122;45;22;128;32330;0;72
1123;45;23;128;32297;95;134
1124;45;24;128;32237;0;234
1125;45;25;128;32153;0;150
1126;46;1;129;32052;0;50
1127;46;2;128;31938;94;28
1128;46;3;128;31818;94;164
1129;46;4;128;31694;45;246
1130;46;5;128;31569;94;170
1131;46;6;128;31446;0;208
1132;46;7;128;31324;0;86
1133;46;8;128;31205;0;222
1134;46;9;128;31092;94;203
1135;46;10;128;30985;94;96
1136;46;11;128;30888;95;255
1137;46;12;128;30805;0;77
1138;46;13;128;30751;0;23
1139;46;14;128;30755;0;27
1140;46;15;128;30859;95;226
1141;46;16;128;31108;95;220
1142;46;17;128;31534;95;136
1143;46;18;128;32135;0;132
1144;46;19;128;32872;0;104
1145;46;20;128;33672;0;139
1146;46;21;128;34447;96;245
1147;46;22;128;35114;0;51
1148;46;23;128;35615;95;137
1149;46;24;128;35924;0;96
1150;46;25;128;36042;0;214
1151;47;1;129;35990;0;163
1152;47;2;128;35804;94;69
1153;47;3;128;35517;94;37
1154;47;4;130;35162;45;146
1155;47;5;130;34763;94;50
1156;47;6;130;34339;0;43
1157;47;7;130;33906;0;120
1158;47;8;130;33482;0;206
1159;47;9;130;33088;94;161
1160;47;10;130;32742;94;69
1161;47;11;130;32462;95;45
1162;47;12;130;32261;0;5
1163;47;13;130;32138;0;137
1164;47;14;128;32085;0;82
1165;47;15;128;32088;95;180
1166;47;16;128;32124;95;216
1167;47;17;128;32171;95;7
1168;47;18;128;32209;0;206
1169;47;19;128;32222;0;219
1170;47;20;128;32206;0;203
1171;47;21;128;32161;94;252
1172;47;22;128;32091;0;88
1173;47;23;128;32000;95;92
1174;47;24;128;31895;0;147
1175;47;25;128;31780;0;32
1176;48;1;129;31659;0;167
1177;48;2;128;31531;94;132
1178;48;3;128;31398;94;254
1179;48;4;128;31264;45;71
1180;48;5;128;31131;94;242
1181;48;6;128;31001;0;18
1182;48;7;128;30878;0;150
1183;48;8;128;30766;0;38
1184;48;9;128;30669;94;34
1185;48;10;128;30592;94;213
1186;48;11;128;30548;95;170
1187;48;12;128;30566;0;93
1188;48;13;128;30687;0;214
1189;48;14;128;30955;0;227
1190;48;15;128;31404;95;5
1191;48;16;128;32040;95;132
1192;48;17;128;32825;95;152
1193;48;18;128;33684;0;151
1194;48;19;128;34524;0;226
1195;48;20;128;35253;0;190
1196;48;21;128;35806;94;71
1197;48;22;128;36148;0;65
1198;48;23;128;36283;95;39
1199;48;24;128;36235;0;152
1200;48;25;128;36044;0;216
1201;49;1;129;35746;0;174
1202;49;2;130;35378;94;156
1203;49;3;130;34962;94;250
1204;49;4;130;34514;45;7
1205;49;5;130;34050;95;104
1206;49;6;130;33590;0;59
1207;49;7;130;33157;0;136
1208;49;8;130;32777;0;11
1209;49;9;130;32470;94;52
1210;49;10;130;32250;94;87
1211;49;11;130;32115;95;209
1212;49;12;128;32055;0;52
1213;49;13;128;32052;0;49
1214;49;14;128;32083;0;80
1215;49;15;128;32130;95;222
1216;49;16;128;32175;95;11
1217;49;17;128;32203;95;39
1218;49;18;128;32208;0;205
1219;49;19;128;32188;0;185
1220;49;20;128;32140;0;137
1221;49;21;128;32065;94;156
1222;49;22;128;31967;0;219
1223;49;23;128;31850;95;197
1224;49;24;128;31720;0;227
1225;49;25;128;31585;0;92
1226;50;1;129;31449;0;212
1227;50;2;128;31315;94;171
1228;50;3;128;31182;95;38
1229;50;4;128;31052;45;114
1230;50;5;128;30926;95;37
1231;50;6;128;30808;0;80
1232;50;7;128;30707;0;234
1233;50;8;128;30634;0;161
1234;50;9;128;30601;94;222
1235;50;10;128;30636;95;2
1236;50;11;128;30778;96;146
1237;50;12;128;31069;0;86
1238;50;13;128;31540;0;47
1239;50;14;128;32191;0;188
1240;50;15;128;32983;95;54
1241;50;16;128;33841;95;148
1242;50;17;128;34667;95;209
1243;50;18;128;35373;0;55
1244;50;19;128;35892;0;64
1245;50;20;128;36199;0;116
1246;50;21;128;36294;94;49
1247;50;22;128;36209;0;126
1248;50;23;128;35983;95;250
1249;50;24;128;35654;0;81
1250;50;25;130;35255;0;194
1251;51;1;131;34809;0;3
1252;51;2;130;34335;94;133
1253;51;3;130;33853;95;162
1254;51;4;130;33387;45;156
1255;51;5;130;32964;95;37
1256;51;6;130;32608;0;97
1257;51;7;130;32335;0;79
1258;51;8;130;32153;0;152
1259;51;9;130;32059;94;152
1260;51;10;128;32033;95;125
1261;51;11;128;32051;96;144
1262;51;12;128;32090;0;87
1263;51;13;128;32127;0;124
1264;51;14;128;32147;0;144
1265;51;15;128;32143;94;234
1266;51;16;128;32115;95;207
1267;51;17;128;32065;95;157
1268;51;18;128;31994;0;246
1269;51;19;128;31904;0;156
1270;51;20;128;31798;0;50
1271;51;21;128;31677;94;22
1272;51;22;128;31545;0;52
1273;51;23;128;31407;95;8
1274;51;24;128;31268;0;30
1275;51;25;128;31131;0;148
1276;52;1;129;30999;0;17
1277;52;2;128;30872;94;238
1278;52;3;128;30750;95;117
1279;52;4;128;30636;45;208
1280;52;5;128;30539;95;161
1281;52;6;128;30476;0;3
1282;52;7;128;30479;0;6
1283;52;8;128;30596;0;123
1284;52;9;128;30874;95;241
1285;52;10;128;31345;95;202
1286;52;11;128;32010;96;103
1287;52;12;128;32830;0;62
1288;52;13;128;33725;0;192
1289;52;14;128;34597;0;44
1290;52;15;128;35352;94;128
1291;52;16;128;35922;95;189
1292;52;17;128;36274;95;30
1293;52;18;128;36406;0;68
1294;52;19;128;36341;0;2
1295;52;20;128;36116;0;33
1296;52;21;128;35767;94;32
1297;52;22;130;35333;0;17
1298;52;23;130;34844;94;132
1299;52;24;130;34327;0;31
1300;52;25;130;33807;0;21
1301;53;1;131;33309;0;34
1302;53;2;130;32854;94;182
1303;53;3;130;32463;95;46
1304;53;4;130;32154;45;198
1305;53;5;130;31933;95;26
1306;53;6;130;31798;0;52
1307;53;7;128;31739;0;246
1308;53;8;128;31741;0;248
1309;53;9;128;31782;95;129
1310;53;10;128;31838;95;185
1311;53;11;128;31892;96;240
1312;53;12;128;31926;0;178
1313;53;13;128;31927;0;179
1314;53;14;128;31895;0;147
1315;53;15;128;31834;94;180
1316;53;16;128;31748;95;95
1317;53;17;128;31645;95;247
1318;53;18;128;31529;0;36
1319;53;19;128;31403;0;165
1320;53;20;128;31271;0;33
1321;53;21;128;31134;94;245
1322;53;22;128;30994;0;11
1323;53;23;128;30854;94;220
1324;53;24;128;30717;0;244
1325;53;25;128;30587;0;114
1326;54;1;129;30470;0;254
1327;54;2;128;30376;94;252
1328;54;3;128;30318;95;195
1329;54;4;128;30321;45;148
1330;54;5;128;30427;95;48
1331;54;6;128;30684;0;211
1332;54;7;128;31136;0;153
1333;54;8;128;31798;0;50
1334;54;9;128;32641;95;223
1335;54;10;128;33592;95;154
1336;54;11;128;34548;96;90
1337;54;12;128;35404;0;86
1338;54;13;128;36074;0;246
1339;54;14;128;36513;0;175
1340;54;15;128;36712;94;213
1341;54;16;128;36694;95;196
1342;54;17;128;36497;95;254
1343;54;18;128;36169;0;86
1344;54;19;130;35753;0;182
1345;54;20;130;35278;0;217
1346;54;21;130;34765;94;52
1347;54;22;130;34234;0;193
1348;54;23;130;33705;94;12
1349;54;24;130;33203;0;182
1350;54;25;130;32754;0;243
1351;55;1;131;32383;0;128
1352;55;2;130;32105;94;198
1353;55;3;130;31922;95;15
1354;55;4;128;31828;45;125
1355;55;5;128;31805;95;152
1356;55;6;128;31833;0;85
1357;55;7;128;31890;0;142
1358;55;8;128;31952;0;204
1359;55;9;128;31996;95;87
1360;55;10;128;32009;95;101
1361;55;11;128;31985;96;77
1362;55;12;128;31924;0;176
1363;55;13;128;31832;0;84
1364;55;14;128;31721;0;228
1365;55;15;128;31597;94;198
1366;55;16;128;31463;95;64
1367;55;17;128;31323;95;180
1368;55;18;128;31178;0;195
1369;55;19;128;31031;0;48
1370;55;20;128;30887;0;159
1371;55;21;128;30749;94;115
1372;55;22;128;30620;0;147
1373;55;23;128;30505;94;126
1374;55;24;128;30408;0;190
1375;55;25;128;30335;0;117
1376;56;1;129;30304;0;87
1377;56;2;128;30351;94;227
1378;56;3;128;30527;95;149
1379;56;4;128;30885;45;202
1380;56;5;128;31458;95;59
1381;56;6;128;32242;0;239
1382;56;7;128;33184;0;161
1383;56;8;128;34190;0;147
1384;56;9;128;35150;95;182
1385;56;10;128;35962;95;229
1386;56;11;128;36560;96;62
1387;56;12;128;36911;0;63
1388;56;13;128;37022;0;174
1389;56;14;128;36922;0;74
1390;56;15;128;36657;94;158
1391;56;16;130;36271;95;29
1392;56;17;130;35802;95;70
1393;56;18;130;35277;0;216
1394;56;19;130;34721;0;170
1395;56;20;130;34153;0;112
1396;56;21;130;33601;94;164
1397;56;22;130;33088;0;67
1398;56;23;130;32642;94;225
1399;56;24;130;32282;0;26
1400;56;25;130;32018;0;17
1401;57;1;129;31848;0;101
1402;57;2;128;31762;94;108
1403;57;3;128;31744;95;91
1404;57;4;128;31771;45;68
1405;57;5;128;31820;95;167
1406;57;6;128;31871;0;123
1407;57;7;128;31906;0;158
1408;57;8;128;31913;0;165
1409;57;9;128;31886;95;233
1410;57;10;128;31825;95;172
1411;57;11;128;31734;96;81
1412;57;12;128;31620;0;127
1413;57;13;128;31490;0;253
1414;57;14;128;31349;0;111
1415;57;15;128;31202;94;57
1416;57;16;128;31051;95;163
1417;57;17;128;30898;95;9
1418;57;18;128;30746;0;18
1419;57;19;128;30602;0;129
1420;57;20;128;30465;0;248
1421;57;21;128;30341;94;217
1422;57;22;128;30238;0;20
1423;57;23;128;30166;94;41
1424;57;24;128;30148;0;185
1425;57;25;128;30225;0;7
1426;58;1;129;30450;0;233
1427;58;2;128;30870;94;236
1428;58;3;128;31510;95;112
1429;58;4;128;32354;45;141
1430;58;5;128;33337;95;154
1431;58;6;128;34360;0;62
1432;58;7;128;35307;0;244
1433;58;8;128;36082;0;254
1434;58;9;128;36620;95;122
1435;58;10;128;36901;95;148
1436;58;11;128;36939;96;187
1437;58;12;128;36774;0;181
1438;58;13;128;36456;0;118
1439;58;14;130;36029;0;203
1440;58;15;130;35529;94;51
1441;58;16;130;34982;95;15
1442;58;17;130;34409;95;208
1443;58;18;130;33833;0;47
1444;58;19;130;33278;0;1
1445;58;20;130;32771;0;5
1446;58;21;130;32340;94;178
1447;58;22;130;32005;0;4
1448;58;23;130;31778;94;126
1449;58;24;128;31656;0;163
1450;58;25;128;31622;0;129
1451;59;1;129;31648;0;156
1452;59;2;128;31710;95;56
1453;59;3;128;31780;96;128
1454;59;4;128;31837;45;134
1455;59;5;128;31870;96;218
1456;59;6;128;31874;0;126
1457;59;7;128;31846;0;98
1458;59;8;128;31788;0;40
1459;59;9;128;31705;95;51
1460;59;10;128;31601;96;204
1461;59;11;128;31479;96;81
1462;59;12;128;31343;0;105
1463;59;13;128;31197;0;214
1464;59;14;128;31048;0;65
1465;59;15;128;30899;95;10
1466;59;16;128;30756;95;123
1467;59;17;128;30623;95;245
1468;59;18;128;30500;0;27
1469;59;19;128;30388;0;170
1470;59;20;128;30293;0;75
1471;59;21;128;30230;94;106
1472;59;22;128;30226;0;8
1473;59;23;128;30326;94;202
1474;59;24;128;30585;0;112
1475;59;25;128;31046;0;63
1476;60;1;129;31726;0;234
1477;60;2;128;32597;95;179
1478;60;3;128;33589;96;152
1479;60;4;128;34596;45;88
1480;60;5;128;35506;96;28
1481;60;6;128;36226;0;143
1482;60;7;128;36705;0;112
1483;60;8;128;36928;0;80
1484;60;9;128;36912;96;160
1485;60;10;128;36697;96;200
1486;60;11;128;36333;96;90
1487;60;12;130;35861;0;35
1488;60;13;130;35317;0;0
1489;60;14;130;34727;0;176
1490;60;15;130;34121;95;175
1491;60;16;130;33526;95;89
1492;60;17;130;32974;95;47
1493;60;18;130;32491;0;235
1494;60;19;130;32103;0;102
1495;60;20;130;31820;0;74
1496;60;21;130;31642;95;246
1497;60;22;128;31560;0;67
1498;60;23;128;31555;95;157
1499;60;24;128;31603;0;110
1500;60;25;128;31680;0;187
1501;61;1;129;31762;0;15
1502;61;2;128;31830;95;177
1503;61;3;128;31870;96;218
1504;61;4;128;31879;45;176
1505;61;5;128;31853;96;201
1506;61;6;128;31796;0;48
1507;61;7;128;31713;0;220
1508;61;8;128;31609;0;116
1509;61;9;128;31489;96;92
1510;61;10;128;31361;96;219
1511;61;11;128;31227;96;84
1512;61;12;128;31090;0;107
1513;61;13;128;30953;0;225
1514;61;14;128;30820;0;92
1515;61;15;128;30692;95;58
1516;61;16;128;30573;95;195
1517;61;17;128;30466;95;88
1518;61;18;128;30377;0;159
1519;61;19;128;30318;0;100
1520;61;20;128;30315;0;97
1521;61;21;128;30409;95;30
1522;61;22;128;30656;0;183
1523;61;23;128;31104;95;216
1524;61;24;128;31771;0;23
1525;61;25;128;32632;0;119
1526;62;1;129;33615;0;83
1527;62;2;128;34618;95;160
1528;62;3;128;35525;96;47
1529;62;4;128;36244;45;206
1530;62;5;128;36719;96;222
1531;62;6;128;36936;0;88
1532;62;7;128;36910;0;62
1533;62;8;128;36685;0;92
1534;62;9;128;36306;96;63
1535;62;10;130;35819;96;88
1536;62;11;130;35262;96;41
1537;62;12;130;34664;0;113
1538;62;13;130;34052;0;11
1539;62;14;130;33457;0;181
1540;62;15;130;32910;95;239
1541;62;16;130;32435;95;18
1542;62;17;130;32056;95;150
1543;62;18;130;31782;0;36
1544;62;19;130;31616;0;125
1545;62;20;128;31544;0;51
1546;62;21;128;31549;95;151
1547;62;22;128;31609;0;116
1548;62;23;128;31698;95;44
1549;62;24;128;31793;0;45
1550;62;25;128;31873;0;125
1551;63;1;129;31926;0;179
1552;63;2;128;31943;95;34
1553;63;3;128;31925;96;17
1554;63;4;128;31873;45;170
1555;63;5;128;31796;96;144
1556;63;6;128;31702;0;209
1557;63;7;128;31597;0;104
1558;63;8;128;31487;0;249
1559;63;9;128;31372;96;230
1560;63;10;128;31253;96;111
1561;63;11;128;31131;96;244
1562;63;12;128;31009;0;26
1563;63;13;128;30887;0;159
1564;63;14;128;30769;0;41
1565;63;15;128;30662;95;28
1566;63;16;128;30572;95;194
1567;63;17;128;30513;95;135
1568;63;18;128;30516;0;43
1569;63;19;128;30624;0;151
1570;63;20;128;30892;0;164
1571;63;21;128;31364;95;221
1572;63;22;128;32053;0;50
1573;63;23;128;32930;95;1
1574;63;24;128;33915;0;127
1575;63;25;128;34899;0;91
1576;64;1;129;35769;0;197
1577;64;2;128;36437;95;194
1578;64;3;128;36857;96;104
1579;64;4;128;37021;45;218
1580;64;5;128;36954;96;202
1581;64;6;128;36697;0;104
1582;64;7;128;36294;0;211
1583;64;8;130;35785;0;214
1584;64;9;130;35205;96;240
1585;64;10;130;34585;96;130
1586;64;11;130;33959;96;13
1587;64;12;130;33363;0;87
1588;64;13;130;32831;0;65
1589;64;14;130;32391;0;135
1590;64;15;130;32061;95;155
1591;64;16;130;31844;95;193
1592;64;17;130;31732;95;80
1593;64;18;128;31705;0;212
1594;64;19;128;31743;0;250
1595;64;20;128;31822;0;74
1596;64;21;128;31919;95;10
1597;64;22;128;32012;0;9
1598;64;23;128;32090;95;182
1599;64;24;128;32138;0;135
1600;64;25;128;32152;0;149
1601;65;1;129;32132;0;130
1602;65;2;128;32082;94;173
1603;65;3;128;32006;96;99
1604;65;4;128;31911;45;208
1605;65;5;128;31802;96;150
1606;65;6;128;31680;0;187
1607;65;7;128;31550;0;57
1608;65;8;128;31412;0;174
1609;65;9;128;31271;96;129
1610;65;10;128;31131;96;244
1611;65;11;128;30996;96;109
1612;65;12;128;30872;0;144
1613;65;13;128;30765;0;37
1614;65;14;128;30690;0;217
1615;65;15;128;30673;95;39
1616;65;16;128;30760;95;127
1617;65;17;128;31003;95;115
1618;65;18;128;31448;0;210
1619;65;19;128;32110;0;107
1620;65;20;128;32961;0;193
1621;65;21;128;33925;94;231
1622;65;22;128;34895;0;87
1623;65;23;128;35761;95;27
1624;65;24;128;36433;0;95
1625;65;25;128;36863;0;14
1626;66;1;129;37038;0;191
1627;66;2;128;36977;94;223
1628;66;3;128;36721;96;224
1629;66;4;128;36314;45;20
1630;66;5;130;35799;96;68
1631;66;6;130;35215;0;154
1632;66;7;130;34595;0;44
1633;66;8;130;33974;0;188
1634;66;9;130;33382;96;202
1635;66;10;130;32854;96;184
1636;66;11;130;32416;96;0
1637;66;12;130;32085;0;84
1638;66;13;130;31869;0;123
1639;66;14;130;31761;0;15
1640;66;15;128;31742;95;88
1641;66;16;128;31788;95;135
1642;66;17;128;31873;95;220
1643;66;18;128;31969;0;221
1644;66;19;128;32055;0;52
1645;66;20;128;32115;0;112
1646;66;21;128;32143;94;234
1647;66;22;128;32138;0;135
1648;66;23;128;32104;95;196
1649;66;24;128;32045;0;42
1650;66;25;128;31970;0;222
1651;67;1;129;31878;0;131
1652;67;2;128;31772;94;118
1653;67;3;128;31652;96;255
1654;67;4;128;31523;45;75
1655;67;5;128;31387;96;245
1656;67;6;128;31251;0;13
1657;67;7;128;31120;0;137
1658;67;8;128;31000;0;17
1659;67;9;128;30892;96;4
1660;67;10;128;30806;96;174
1661;67;11;128;30766;96;134
1662;67;12;128;30815;0;87
1663;67;13;128;31012;0;29
1664;67;14;128;31414;0;176
1665;67;15;128;32051;94;142
1666;67;16;128;32911;96;239
1667;67;17;128;33923;95;230
1668;67;18;128;34981;0;173
1669;67;19;128;35963;0;135
1670;67;20;128;36763;0;170
1671;67;21;128;37315;94;50
1672;67;22;128;37596;0;238
1673;67;23;128;37619;95;100
1674;67;24;128;37420;0;62
1675;67;25;128;37045;0;197
1676;68;1;131;36543;0;208
1677;68;2;130;35951;94;219
1678;68;3;130;35302;96;81
1679;68;4;130;34630;45;124
1680;68;5;130;33969;96;23
1681;68;6;130;33353;0;77
1682;68;7;130;32814;0;48
1683;68;8;130;32378;0;122
1684;68;9;130;32059;96;154
1685;68;10;130;31855;96;205
1686;68;11;128;31753;96;101
1687;68;12;128;31738;0;245
1688;68;13;128;31785;0;37
1689;68;14;128;31869;0;121
1690;68;15;128;31962;94;52
1691;68;16;128;32045;96;138
1692;68;17;128;32104;95;196
1693;68;18;128;32127;0;124
1694;68;19;128;32115;0;112
1695;68;20;128;32070;0;67
1696;68;21;128;31995;94;85
1697;68;22;128;31895;0;147
1698;68;23;128;31774;95;121
1699;68;24;128;31638;0;145
1700;68;25;128;31491;0;254
1701;69;1;129;31336;0;99
1702;69;2;128;31175;94;30
1703;69;3;128;31014;96;127
1704;69;4;128;30857;45;174
1705;69;5;128;30712;96;79
1706;69;6;128;30596;0;123
1707;69;7;128;30539;0;66
1708;69;8;128;30590;0;117
1709;69;9;128;30811;96;179
1710;69;10;128;31258;96;116
1711;69;11;128;31956;96;48
1712;69;12;128;32884;0;116
1713;69;13;128;33967;0;179
1714;69;14;128;35094;0;31
1715;69;15;128;36137;94;148
1716;69;16;128;36990;96;238
1717;69;17;128;37584;96;66
1718;69;18;128;37890;0;22
1719;69;19;128;37920;0;52
1720;69;20;128;37715;0;102
1721;69;21;128;37327;94;62
1722;69;22;130;36807;0;216
1723;69;23;130;36199;94;212
1724;69;24;130;35537;0;221
1725;69;25;130;34851;0;45
1726;70;1;131;34169;0;129
1727;70;2;130;33523;95;86
1728;70;3;130;32944;96;18
1729;70;4;130;32460;45;249
1730;70;5;130;32088;96;183
1731;70;6;130;31837;0;91
1732;70;7;128;31697;0;204
1733;70;8;128;31651;0;158
1734;70;9;128;31678;96;25
1735;70;10;128;31750;96;98
1736;70;11;128;31839;96;187
1737;70;12;128;31921;0;173
1738;70;13;128;31980;0;232
1739;70;14;128;32007;0;4
1740;70;15;128;31996;95;87
1741;70;16;128;31949;96;41
1742;70;17;128;31868;96;216
1743;70;18;128;31759;0;11
1744;70;19;128;31623;0;130
1745;70;20;128;31468;0;230
1746;70;21;128;31298;94;154
1747;70;22;128;31122;0;139
1748;70;23;128;30946;94;56
1749;70;24;128;30775;0;47
1750;70;25;128;30615;0;142
1751;71;1;129;30475;0;3
1752;71;2;128;30375;95;252
1753;71;3;128;30350;96;228
1754;71;4;128;30456;45;27
1755;71;5;128;30758;96;126
1756;71;6;128;31307;0;69
1757;71;7;128;32116;0;113
1758;71;8;128;33143;0;120
1759;71;9;128;34297;96;94
1760;71;10;128;35454;96;232
1761;71;11;128;36486;96;244
1762;71;12;128;37291;0;188
1763;71;13;128;37814;0;201
1764;71;14;128;38037;0;169
1765;71;15;128;37988;95;215
1766;71;16;128;37711;96;194
1767;71;17;128;37259;96;252
1768;71;18;130;36683;0;92
1769;71;19;130;36024;0;198
1770;71;20;130;35319;0;2
1771;71;21;130;34596;94;139
1772;71;22;130;33892;0;106
1773;71;23;130;33239;94;56
1774;71;24;130;32670;0;159
1775;71;25;130;32207;0;206
1776;72;1;131;31865;0;120
1777;72;2;130;31646;95;250
1778;72;3;128;31539;96;142
1779;72;4;128;31522;45;74
1780;72;5;128;31571;96;174
1781;72;6;128;31657;0;164
1782;72;7;128;31753;0;5
1783;72;8;128;31835;0;87
1784;72;9;128;31887;96;235
1785;72;10;128;31900;96;248
1786;72;11;128;31871;97;220
1787;72;12;128;31799;0;51
1788;72;13;128;31691;0;198
1789;72;14;128;31553;0;60
1790;72;15;128;31392;95;249
1791;72;16;128;31214;96;71
1792;72;17;128;31026;96;139
1793;72;18;128;30833;0;105
1794;72;19;128;30643;0;170
1795;72;20;128;30463;0;245
1796;72;21;128;30302;94;178
1797;72;22;128;30175;0;212
1798;72;23;128;30110;94;241
1799;72;24;128;30155;0;192
1800;72;25;128;30368;0;150
1801;73;1;129;30805;0;78
1802;73;2;128;31494;95;96
1803;73;3;128;32420;96;2
1804;73;4;128;33513;45;24
1805;73;5;128;34661;96;204
1806;73;6;128;35735;0;162
1807;73;7;128;36626;0;33
1808;73;8;128;37252;0;149
1809;73;9;128;37582;96;64
1810;73;10;128;37625;96;107
1811;73;11;128;37423;97;162
1812;73;12;128;37026;0;178
1813;73;13;130;36487;0;151
1814;73;14;130;35851;0;25
1815;73;15;130;35157;95;191
1816;73;16;130;34439;96;239
1817;73;17;130;33730;96;39
1818;73;18;130;33064;0;43
1819;73;19;130;32473;0;217
1820;73;20;130;31986;0;240
1821;73;21;130;31621;94;224
1822;73;22;130;31381;0;145
1823;73;23;128;31257;94;113
1824;73;24;128;31231;0;248
1825;73;25;128;31275;0;37
1826;74;1;129;31358;0;121
1827;74;2;128;31451;96;53
1828;74;3;128;31533;96;136
1829;74;4;128;31588;45;140
1830;74;5;128;31607;96;210
1831;74;6;128;31583;0;90
1832;74;7;128;31519;0;26
1833;74;8;128;31418;0;180
1834;74;9;128;31287;96;145
1835;74;10;128;31131;96;244
1836;74;11;128;30958;97;71
1837;74;12;128;30775;0;47
1838;74;13;128;30589;0;116
1839;74;14;128;30407;0;189
1840;74;15;128;30236;95;113
1841;74;16;128;30083;96;216
1842;74;17;128;29959;96;92
1843;74;18;128;29887;0;179
1844;74;19;128;29909;0;201
1845;74;20;128;30081;0;118
1846;74;21;128;30462;96;84
1847;74;22;128;31088;0;105
1848;74;23;128;31952;95;43
1849;74;24;128;32992;0;224
1850;74;25;128;34107;0;64
1851;75;1;129;35170;0;108
1852;75;2;128;36067;96;79
1853;75;3;128;36715;96;218
1854;75;4;128;37078;45;19
1855;75;5;128;37161;96;154
1856;75;6;128;37003;0;155
1857;75;7;128;36652;0;59
1858;75;8;130;36160;0;79
1859;75;9;130;35568;96;92
1860;75;10;130;34912;96;202
1861;75;11;130;34226;97;26
1862;75;12;130;33544;0;13
1863;75;13;130;32902;0;136
1864;75;14;130;32337;0;81
1865;75;15;130;31874;95;223
1866;75;16;130;31526;96;131
1867;75;17;130;31297;96;157
1868;75;18;128;31179;0;196
1869;75;19;128;31153;0;170
1870;75;20;128;31194;0;211
1871;75;21;128;31278;96;136
1872;75;22;128;31373;0;135
1873;75;23;128;31460;95;61
1874;75;24;128;31521;0;28
1875;75;25;128;31544;0;51
1876;76;1;129;31524;0;32
1877;76;2;128;31463;96;65
1878;76;3;128;31363;96;221
1879;76;4;128;31232;45;39
1880;76;5;128;31080;96;193
1881;76;6;128;30917;0;189
1882;76;7;128;30748;0;20
1883;76;8;128;30578;0;105
1884;76;9;128;30409;96;31
1885;76;10;128;30247;96;125
1886;76;11;128;30096;97;230
1887;76;12;128;29970;0;7
1888;76;13;128;29893;0;185
1889;76;14;128;29899;0;191
1890;76;15;128;30037;96;170
1891;76;16;128;30364;96;242
1892;76;17;128;30915;96;27
1893;76;18;128;31694;0;201
1894;76;19;128;32657;0;144
1895;76;20;128;33717;0;184
1896;76;21;128;34757;96;44
1897;76;22;128;35665;0;92
1898;76;23;128;36354;95;111
1899;76;24;128;36780;0;187
1900;76;25;128;36936;0;88
1901;77;1;129;36846;0;254
1902;77;2;128;36557;96;59
1903;77;3;128;36116;96;129
1904;77;4;130;35566;45;39
1905;77;5;130;34946;96;236
1906;77;6;130;34294;0;253
1907;77;7;130;33643;0;112
1908;77;8;130;33023;0;1
1909;77;9;130;32471;96;55
1910;77;10;130;32018;96;113
1911;77;11;130;31679;97;29
1912;77;12;130;31462;0;226
1913;77;13;130;31360;0;124
1914;77;14;128;31356;0;118
1915;77;15;128;31422;96;24
1916;77;16;128;31527;96;130
1917;77;17;128;31641;96;244
1918;77;18;128;31740;0;247
1919;77;19;128;31807;0;59
1920;77;20;128;31834;0;86
1921;77;21;128;31820;96;168
1922;77;22;128;31770;0;22
1923;77;23;128;31687;95;33
1924;77;24;128;31578;0;85
1925;77;25;128;31447;0;209
1926;78;1;129;31300;0;63
1927;78;2;128;31142;97;0
1928;78;3;128;30979;96;92
1929;78;4;128;30817;45;134
1930;78;5;128;30662;96;29
1931;78;6;128;30521;0;48
1932;78;7;128;30404;0;186
1933;78;8;128;30329;0;111
1934;78;9;128;30322;96;200
1935;78;10;128;30429;96;51
1936;78;11;128;30705;98;74
1937;78;12;128;31193;0;210
1938;78;13;128;31903;0;155
1939;78;14;128;32804;0;36
1940;78;15;128;33816;96;124
1941;78;16;128;34828;96;116
1942;78;17;128;35725;96;248
1943;78;18;128;36415;0;77
1944;78;19;128;36848;0;255
1945;78;20;128;37016;0;168
1946;78;21;128;36941;97;190
1947;78;22;128;36668;0;75
1948;78;23;128;36243;96;0
1949;78;24;130;35711;0;140
1950;78;25;130;35109;0;48
1951;79;1;131;34470;0;175
1952;79;2;130;33830;98;142
1953;79;3;130;33225;97;45
1954;79;4;130;32689;45;223
1955;79;5;130;32254;97;94
1956;79;6;130;31938;0;192
1957;79;7;130;31743;0;252
1958;79;8;130;31657;0;166
1959;79;9;128;31657;96;4
1960;79;10;128;31716;97;64
1961;79;11;128;31802;98;152
1962;79;12;128;31890;0;142
1963;79;13;128;31962;0;214
1964;79;14;128;32006;0;3
1965;79;15;128;32020;97;114
1966;79;16;128;32000;96;93
1967;79;17;128;31947;96;39
1968;79;18;128;31863;0;115
1969;79;19;128;31751;0;3
1970;79;20;128;31615;0;122
1971;79;21;128;31463;97;66
1972;79;22;128;31301;0;63
1973;79;23;128;31138;96;251
1974;79;24;128;30977;0;250
1975;79;25;128;30822;0;94
1976;80;1;129;30676;0;204
1977;80;2;128;30549;98;174
1978;80;3;128;30457;97;80
1979;80;4;128;30430;45;1
1980;80;5;128;30519;97;143
1981;80;6;128;30781;0;53
1982;80;7;128;31258;0;20
1983;80;8;128;31964;0;216
1984;80;9;128;32864;96;192
1985;80;10;128;33875;97;184
1986;80;11;128;34884;98;174
1987;80;12;128;35776;0;203
1988;80;13;128;36463;0;125
1989;80;14;128;36896;0;48
1990;80;15;128;37067;97;60
1991;80;16;128;37002;96;250
1992;80;17;128;36742;96;245
1993;80;18;128;36333;0;250
1994;80;19;130;35814;0;243
1995;80;20;130;35221;0;160
1996;80;21;130;34587;97;133
1997;80;22;130;33948;0;162
1998;80;23;130;33342;96;162
1999;80;24;130;32807;0;41
2000;80;25;130;32372;0;116
2001;81;1;131;32052;0;52
2002;81;2;130;31851;98;203
2003;81;3;130;31759;97;110
2004;81;4;128;31759;45;56
2005;81;5;128;31823;97;172
2006;81;6;128;31923;0;175
2007;81;7;128;32030;0;27
2008;81;8;128;32119;0;116
2009;81;9;128;32174;96;11
2010;81;10;128;32188;97;26
2011;81;11;128;32163;98;2
2012;81;12;128;32105;0;102
2013;81;13;128;32020;0;17
2014;81;14;128;31913;0;165
2015;81;15;128;31789;97;138
2016;81;16;128;31652;96;255
2017;81;17;128;31505;96;108
2018;81;18;128;31352;0;114
2019;81;19;128;31194;0;211
2020;81;20;128;31036;0;53
2021;81;21;128;30885;97;254
2022;81;22;128;30755;0;27
2023;81;23;128;30671;96;38
2024;81;24;128;30671;0;198
2025;81;25;128;30812;0;84
2026;82;1;129;31148;0;166
2027;82;2;128;31716;98;65
2028;82;3;128;32510;97;93
2029;82;4;128;33481;45;248
2030;82;5;128;34531;97;74
2031;82;6;128;35545;0;227
2032;82;7;128;36410;0;72
2033;82;8;128;37048;0;200
2034;82;9;128;37420;96;158
2035;82;10;128;37531;97;14
2036;82;11;128;37413;98;153
2037;82;12;128;37108;0;4
2038;82;13;128;36666;0;73
2039;82;14;130;36124;0;43
2040;82;15;130;35516;97;41
2041;82;16;130;34871;96;161
2042;82;17;130;34222;96;21
2043;82;18;130;33605;0;74
2044;82;19;130;33054;0;33
2045;82;20;130;32598;0;87
2046;82;21;130;32257;97;98
2047;82;22;130;32035;0;34
2048;82;23;130;31922;96;16
2049;82;24;128;31896;0;148
2050;82;25;128;31932;0;184
2051;83;1;129;31999;0;252
2052;83;2;128;32073;98;168
2053;83;3;128;32131;97;225
2054;83;4;128;32161;45;203
2055;83;5;128;32154;97;248
2056;83;6;128;32109;0;106
2057;83;7;128;32028;0;25
2058;83;8;128;31914;0;166
2059;83;9;128;31773;97;122
2060;83;10;128;31613;97;217
2061;83;11;128;31441;98;45
2062;83;12;128;31264;0;26
2063;83;13;128;31089;0;106
2064;83;14;128;30920;0;192
2065;83;15;128;30761;97;130
2066;83;16;128;30621;97;245
2067;83;17;128;30518;97;142
2068;83;18;128;30483;0;10
2069;83;19;128;30565;0;92
2070;83;20;128;30826;0;98
2071;83;21;128;31312;98;172
2072;83;22;128;32043;0;40
2073;83;23;128;32990;97;63
2074;83;24;128;34071;0;28
2075;83;25;128;35167;0;104
2076;84;1;129;36154;0;72
2077;84;2;128;36933;98;183
2078;84;3;128;37446;97;185
2079;84;4;128;37680;45;112
2080;84;5;128;37656;97;140
2081;84;6;128;37420;0;62
2082;84;7;128;37021;0;173
2083;84;8;130;36503;0;167
2084;84;9;130;35903;97;174
2085;84;10;130;35254;97;34
2086;84;11;130;34584;98;131
2087;84;12;130;33920;0;134
2088;84;13;130;33296;0;20
2089;84;14;130;32744;0;233
2090;84;15;130;32295;97;136
2091;84;16;130;31966;97;61
2092;84;17;130;31760;97;111
2093;84;18;128;31663;0;170
2094;84;19;128;31655;0;162
2095;84;20;128;31702;0;209
2096;84;21;128;31773;98;123
2097;84;22;128;31843;0;95
2098;84;23;128;31892;97;241
2099;84;24;128;31905;0;157
2100;84;25;128;31877;0;129
2101;85;1;129;31809;0;62
2102;85;2;128;31704;99;54
2103;85;3;128;31571;97;175
2104;85;4;128;31419;45;226
2105;85;5;128;31255;97;114
2106;85;6;128;31084;0;101
2107;85;7;128;30913;0;185
2108;85;8;128;30742;0;14
2109;85;9;128;30575;97;199
2110;85;10;128;30419;97;42
2111;85;11;128;30290;98;170
2112;85;12;128;30209;0;247
2113;85;13;128;30218;0;0
2114;85;14;128;30374;0;156
2115;85;15;128;30737;98;107
2116;85;16;128;31348;97;207
2117;85;17;128;32208;97;46
2118;85;18;128;33268;0;245
2119;85;19;128;34427;0;129
2120;85;20;128;35560;0;242
2121;85;21;128;36542;98;46
2122;85;22;128;37281;0;178
2123;85;23;128;37730;97;214
2124;85;24;128;37887;0;18
2125;85;25;128;37784;0;171
2126;86;1;129;37473;0;116
2127;86;2;128;37009;99;4
2128;86;3;130;36440;97;201
2129;86;4;130;35799;45;17
2130;86;5;130;35113;98;150
2131;86;6;130;34411;0;115
2132;86;7;130;33723;0;192
2133;86;8;130;33082;0;61
2134;86;9;130;32523;97;109
2135;86;10;130;32072;97;168
2136;86;11;130;31744;98;96
2137;86;12;130;31537;0;46
2138;86;13;128;31439;0;201
2139;86;14;128;31424;0;186
2140;86;15;128;31463;98;67
2141;86;16;128;31525;97;129
2142;86;17;128;31582;97;186
2143;86;18;128;31613;0;120
2144;86;19;128;31606;0;113
2145;86;20;128;31560;0;67
2146;86;21;128;31476;98;80
2147;86;22;128;31359;0;121
2148;86;23;128;31218;97;76
2149;86;24;128;31060;0;77
2150;86;25;128;30890;0;162
2151;87;1;129;30717;0;245
2152;87;2;128;30545;99;171
2153;87;3;128;30376;98;0
2154;87;4;128;30217;45;44
2155;87;5;128;30072;98;207
2156;87;6;128;29949;0;241
2157;87;7;128;29867;0;159
2158;87;8;128;29864;0;156
2159;87;9;128;29995;98;130
2160;87;10;128;30328;98;208
2161;87;11;128;30915;98;29
2162;87;12;128;31774;0;26
2163;87;13;128;32866;0;98
2164;87;14;128;34097;0;54
2165;87;15;128;35335;98;115
2166;87;16;128;36443;97;202
2167;87;17;128;37314;97;52
2168;87;18;128;37885;0;16
2169;87;19;128;38143;0;19
2170;87;20;128;38116;0;248
2171;87;21;128;37856;99;86
2172;87;22;128;37423;0;65
2173;87;23;130;36869;98;121
2174;87;24;130;36231;0;150
2175;87;25;130;35536;0;220
2176;88;1;131;34809;0;3
2177;88;2;130;34073;100;132
2178;88;3;130;33360;98;182
2179;88;4;130;32708;45;242
2180;88;5;130;32153;98;250
2181;88;6;130;31722;0;231
2182;88;7;130;31426;0;190
2183;88;8;128;31261;0;23
2184;88;9;128;31204;98;63
2185;88;10;128;31222;98;81
2186;88;11;128;31281;98;141
2187;88;12;128;31347;0;109
2188;88;13;128;31398;0;160
2189;88;14;128;31419;0;181
2190;88;15;128;31402;98;6
2191;88;16;128;31347;97;206
2192;88;17;128;31255;97;114
2193;88;18;128;31131;0;148
2194;88;19;128;30980;0;253
2195;88;20;128;30809;0;81
2196;88;21;128;30623;99;249
2197;88;22;128;30429;0;211
2198;88;23;128;30232;98;112
2199;88;24;128;30034;0;71
2200;88;25;128;29841;0;133
2201;89;1;129;29656;0;204
2202;89;2;128;29485;100;132
2203;89;3;128;29342;98;242
2204;89;4;128;29253;45;100
2205;89;5;128;29255;98;155
2206;89;6;128;29390;0;192
2207;89;7;128;29714;0;6
2208;89;8;128;30287;0;69
2209;89;9;128;31145;98;4
2210;89;10;128;32270;98;110
2211;89;11;128;33580;98;145
2212;89;12;128;34942;0;134
2213;89;13;128;36195;0;112
2214;89;14;128;37195;0;92
2215;89;15;128;37846;98;75
2216;89;16;128;38117;97;90
2217;89;17;128;38025;97;254
2218;89;18;128;37627;0;13
2219;89;19;128;36995;0;147
2220;89;20;130;36203;0;122
2221;89;21;130;35334;99;117
2222;89;22;130;34495;0;199
2223;89;23;130;33810;98;122
2224;89;24;130;33353;0;77
2225;89;25;130;33205;0;184
2226;90;1;131;33474;0;199
2227;90;2;130;34176;100;235
2228;90;3;130;35142;98;179
2229;90;4;130;36116;45;80
2230;90;5;128;36875;98;125
2231;90;6;128;37236;0;133
2232;90;7;128;37083;0;235
2233;90;8;128;36422;0;84
2234;90;9;128;35366;98;146
2235;90;10;128;34018;98;72
2236;90;11;128;32478;95;59
2237;90;12;128;30877;0;149
2238;90;13;128;29362;0;164
2239;90;14;128;28081;0;158
2240;90;15;128;27123;99;63
2241;90;16;128;26479;97;183
2242;90;17;128;26080;97;38
2243;90;18;128;25853;0;225
2244;90;19;128;25735;0;107
2245;90;20;128;25676;0;48
2246;90;21;128;25638;99;109
2247;90;22;128;25606;0;234
2248;90;23;128;25579;98;48
2249;90;24;128;25561;0;188
2250;90;25;128;25567;0;194
2251;91;1;129;25611;0;240
2252;91;2;128;25722;100;194
2253;91;3;128;25941;98;156
2254;91;4;128;26332;45;239
2255;91;5;128;26972;98;167
2256;91;6;128;27936;0;13
2257;91;7;128;29254;0;56
2258;91;8;128;30883;0;155
2259;91;9;128;32695;98;24
2260;91;10;128;34504;98;48
2261;91;11;128;36116;95;128
2262;91;12;128;37378;0;20
2263;91;13;128;38215;0;92
2264;91;14;128;38629;0;251
2265;91;15;128;38683;99;149
2266;91;16;128;38462;97;181
2267;91;17;128;38049;97;22
2268;91;18;130;37506;0;150
2269;91;19;130;36877;0;31
2270;91;20;130;36188;0;107
2271;91;21;130;35464;100;248
2272;91;22;130;34730;0;179
2273;91;23;130;34018;99;75
2274;91;24;130;33364;0;88
2275;91;25;130;32807;0;41
2276;92;1;131;32380;0;125
2277;92;2;130;32098;100;197
2278;92;3;128;31960;98;54
2279;92;4;128;31946;45;243
2280;92;5;128;32024;98;119
2281;92;6;128;32154;0;151
2282;92;7;128;32294;0;36
2283;92;8;128;32409;0;151
2284;92;9;128;32474;98;58
2285;92;10;128;32478;98;62
2286;92;11;128;32419;97;2
2287;92;12;128;32307;0;49
2288;92;13;128;32158;0;155
2289;92;14;128;31988;0;240
2290;92;15;128;31810;99;161
2291;92;16;128;31632;97;236
2292;92;17;128;31458;97;61
2293;92;18;128;31290;0;52
2294;92;19;128;31129;0;146
2295;92;20;128;30977;0;250
2296;92;21;128;30831;100;203
2297;92;22;128;30692;0;219
2298;92;23;128;30564;99;190
2299;92;24;128;30448;0;230
2300;92;25;128;30344;0;126
2301;93;1;129;30260;0;43
2302;93;2;128;30202;100;83
2303;93;3;128;30187;98;66
2304;93;4;128;30243;45;70
2305;93;5;128;30427;98;51
2306;93;6;128;30809;0;81
2307;93;7;128;31450;0;212
2308;93;8;128;32376;0;118
2309;93;9;128;33554;98;119
2310;93;10;128;34892;98;182
2311;93;11;128;36249;97;7
2312;93;12;128;37473;0;115
2313;93;13;128;38440;0;62
2314;93;14;128;39074;0;186
2315;93;15;128;39356;99;56
2316;93;16;128;39315;97;13
2317;93;17;128;39010;97;219
2318;93;18;128;38512;0;134
2319;93;19;130;37883;0;16
2320;93;20;130;37168;0;67
2321;93;21;130;36403;100;167
2322;93;22;130;35617;0;46
2323;93;23;130;34835;99;128
2324;93;24;130;34091;0;50
2325;93;25;130;33424;0;148
2326;94;1;131;32866;0;101
2327;94;2;130;32441;99;28
2328;94;3;130;32158;98;255
2329;94;4;128;32009;45;51
2330;94;5;128;31971;98;65
2331;94;6;128;32008;0;5
2332;94;7;128;32084;0;81
2333;94;8;128;32162;0;159
2334;94;9;128;32214;98;53
2335;94;10;128;32221;98;60
2336;94;11;128;32179;97;17
2337;94;12;128;32089;0;86
2338;94;13;128;31957;0;209
2339;94;14;128;31794;0;46
2340;94;15;128;31612;98;217
2341;94;16;128;31418;97;21
2342;94;17;128;31224;97;82
2343;94;18;128;31035;0;52
2344;94;19;128;30857;0;129
2345;94;20;128;30690;0;217
2346;94;21;128;30534;100;161
2347;94;22;128;30387;0;169
2348;94;23;128;30249;99;130
2349;94;24;128;30122;0;159
2350;94;25;128;30006;0;43
2351;95;1;129;29904;0;197
2352;95;2;128;29815;99;206
2353;95;3;128;29745;98;135
2354;95;4;128;29699;45;36
2355;95;5;128;29696;98;86
2356;95;6;128;29772;0;64
2357;95;7;128;29984;0;21
2358;95;8;128;30401;0;183
2359;95;9;128;31081;98;196
2360;95;10;128;32043;98;138
2361;95;11;128;33246;97;64
2362;95;12;128;34591;0;38
2363;95;13;128;35936;0;108
2364;95;14;128;37133;0;30
2365;95;15;128;38059;98;33
2366;95;16;128;38646;97;109
2367;95;17;128;38879;97;87
2368;95;18;128;38791;0;158
2369;95;19;128;38444;0;66
2370;95;20;128;37908;0;40
2371;95;21;130;37246;100;245
2372;95;22;130;36505;0;169
2373;95;23;130;35720;99;248
2374;95;24;130;34921;0;115
2375;95;25;130;34137;0;96
2376;96;1;131;33405;0;130
2377;96;2;130;32764;98;95
2378;96;3;130;32246;97;86
2379;96;4;130;31870;45;169
2380;96;5;130;31640;97;246
2381;96;6;128;31542;0;49
2382;96;7;128;31546;0;53
2383;96;8;128;31620;0;127
2384;96;9;128;31725;97;73
2385;96;10;128;31827;97;176
2386;96;11;128;31898;97;247
2387;96;12;128;31923;0;175
2388;96;13;128;31895;0;147
2389;96;14;128;31819;0;71
2390;96;15;128;31702;98;51
2391;96;16;128;31556;97;160
2392;96;17;128;31391;97;250
2393;96;18;128;31217;0;234
2394;96;19;128;31043;0;60
2395;96;20;128;30873;0;145
2396;96;21;128;30710;98;79
2397;96;22;128;30555;0;82
2398;96;23;128;30408;98;32
2399;96;24;128;30264;0;46
2400;96;25;128;30128;0;165
2401;97;1;129;30003;0;41
2402;97;2;128;29887;98;21
2403;97;3;128;29785;97;174
2404;97;4;128;29700;45;37
2405;97;5;128;29637;97;25
2406;97;6;128;29613;0;160
2407;97;7;128;29661;0;208
2408;97;8;128;29837;0;129
2409;97;9;128;30214;97;93
2410;97;10;128;30853;97;222
2411;97;11;128;31778;97;127
2412;97;12;128;32958;0;190
2413;97;13;128;34297;0;254
2414;97;14;128;35655;0;82
2415;97;15;128;36882;98;132
2416;97;16;128;37852;97;80
2417;97;17;128;38488;97;207
2418;97;18;128;38771;0;138
2419;97;19;128;38726;0;93
2420;97;20;128;38413;0;35
2421;97;21;128;37900;98;130
2422;97;22;130;37251;0;150
2423;97;23;130;36515;98;21
2424;97;24;130;35730;0;159
2425;97;25;130;34925;0;119
2426;98;1;131;34132;0;92
2427;98;2;130;33388;95;207
2428;98;3;130;32732;97;62
2429;98;4;130;32196;45;240
2430;98;5;130;31802;97;153
2431;98;6;130;31555;0;64
2432;98;7;128;31443;0;205
2433;98;8;128;31437;0;199
2434;98;9;128;31504;97;108
2435;98;10;128;31608;97;212
2436;98;11;128;31718;97;66
2437;98;12;128;31804;0;56
2438;98;13;128;31852;0;104
2439;98;14;128;31851;0;103
2440;98;15;128;31801;96;149
2441;98;16;128;31708;97;56
2442;98;17;128;31583;97;187
2443;98;18;128;31436;0;198
2444;98;19;128;31278;0;40
2445;98;20;128;31116;0;133
2446;98;21;128;30957;98;71
2447;98;22;128;30800;0;72
2448;98;23;128;30647;98;16
2449;98;24;128;30496;0;23
2450;98;25;128;30346;0;128
2451;99;1;129;30200;0;238
2452;99;2;128;30060;95;192
2453;99;3;128;29933;97;66
2454;99;4;128;29822;45;159
2455;99;5;128;29735;97;124
2456;99;6;128;29684;0;231
2457;99;7;128;29702;0;250
2458;99;8;128;29847;0;139
2459;99;9;128;30190;97;68
2460;99;10;128;30798;97;167
2461;99;11;128;31697;97;45
2462;99;12;128;32860;0;92
2463;99;13;128;34193;0;150
2464;99;14;128;35555;0;237
2465;99;15;128;36795;96;42
2466;99;16;128;37787;97;15
2467;99;17;128;38454;97;173
2468;99;18;128;38769;0;136
2469;99;19;128;38757;0;124
2470;99;20;128;38472;0;94
2471;99;21;128;37978;98;208
2472;99;22;130;37336;0;235
2473;99;23;130;36595;98;101
2474;99;24;130;35797;0;226
2475;99;25;130;34975;0;169
2476;100;1;131;34165;0;125
2477;100;2;130;33401;94;219
2478;100;3;130;32726;97;56
2479;100;4;130;32172;45;216
2480;100;5;130;31762;97;113
2481;100;6;130;31502;0;11
2482;100;7;128;31380;0;142
2483;100;8;128;31373;0;135
2484;100;9;128;31442;97;45
2485;100;10;128;31551;97;155
2486;100;11;128;31666;97;14
2487;100;12;128;31761;0;13
2488;100;13;128;31819;0;71
2489;100;14;128;31828;0;80
2490;100;15;128;31792;96;140
2491;100;16;128;31713;97;61
2492;100;17;128;31604;97;208
2493;100;18;128;31471;0;233
2494;100;19;128;31327;0;89
2495;100;20;128;31177;0;194
2496;100;21;128;31025;94;136
2497;100;22;128;30868;0;140
2498;100;23;128;30711;96;78
2499;100;24;128;30557;0;84
2500;100;25;128;30404;0;186
2501;101;1;129;30256;0;39
2502;101;2;128;30117;94;248
2503;101;3;128;29990;97;124
2504;101;4;128;29878;45;215
2505;101;5;128;29793;97;182
2506;101;6;128;29764;0;56
2507;101;7;128;29841;0;133
2508;101;8;128;30095;0;132
2509;101;9;128;30603;97;227
2510;101;10;128;31411;97;14
2511;101;11;128;32511;97;94
2512;101;12;128;33825;0;37
2513;101;13;128;35221;0;158
2514;101;14;128;36542;0;204
2515;101;15;128;37644;96;127
2516;101;16;128;38433;97;152
2517;101;17;128;38870;97;78
2518;101;18;128;38966;0;78
2519;101;19;128;38767;0;134
2520;101;20;128;38338;0;215
2521;101;21;130;37739;94;222
2522;101;22;130;37023;0;177
2523;101;23;130;36236;96;251
2524;101;24;130;35414;0;98
2525;101;25;130;34590;0;39
2526;102;1;131;33802;0;17
2527;102;2;130;33089;92;160
2528;102;3;130;32487;97;72
2529;102;4;130;32021;45;65
2530;102;5;130;31702;97;52
2531;102;6;128;31526;0;33
2532;102;7;128;31473;0;235
2533;102;8;128;31512;0;19
2534;102;9;128;31606;97;210
2535;102;10;128;31720;97;68
2536;102;11;128;31826;97;175
2537;102;12;128;31902;0;154
2538;102;13;128;31936;0;188
2539;102;14;128;31925;0;177
2540;102;15;128;31874;95;221
2541;102;16;128;31789;97;138
2542;102;17;128;31678;97;26
2543;102;18;128;31549;0;56
2544;102;19;128;31408;0;170
2545;102;20;128;31259;0;21
2546;102;21;128;31103;94;214
2547;102;22;128;30942;0;214
2548;102;23;128;30777;96;145
2549;102;24;128;30610;0;137
2550;102;25;128;30443;0;225
2551;103;1;129;30277;0;60
2552;103;2;128;30121;92;250
2553;103;3;128;29984;97;118
2554;103;4;128;29883;45;220
2555;103;5;128;29851;97;240
2556;103;6;128;29946;0;238
2557;103;7;128;30242;0;24
2558;103;8;128;30811;0;83
2559;103;9;128;31686;97;34
2560;103;10;128;32846;97;175
2561;103;11;128;34199;97;253
2562;103;12;128;35602;0;29
2563;103;13;128;36893;0;45
2564;103;14;128;37938;0;70
2565;103;15;128;38653;95;114
2566;103;16;128;39008;97;217
2567;103;17;128;39024;97;233
2568;103;18;128;38755;0;122
2569;103;19;128;38266;0;143
2570;103;20;130;37618;0;6
2571;103;21;130;36864;94;112
2572;103;22;130;36043;0;217
2573;103;23;130;35191;96;226
2574;103;24;130;34348;0;52
2575;103;25;130;33549;0;18
2576;104;1;131;32838;0;73
2577;104;2;130;32249;92;84
2578;104;3;130;31806;97;157
2579;104;4;130;31516;45;70
2580;104;5;128;31370;97;229
2581;104;6;128;31346;0;108
2582;104;7;128;31409;0;171
2583;104;8;128;31521;0;28
2584;104;9;128;31646;97;250
2585;104;10;128;31756;97;105
2586;104;11;128;31829;97;178
2587;104;12;128;31858;0;110
2588;104;13;128;31840;0;92
2589;104;14;128;31782;0;34
2590;104;15;128;31692;94;37
2591;104;16;128;31577;97;181
2592;104;17;128;31444;97;47
2593;104;18;128;31296;0;58
2594;104;19;128;31137;0;154
2595;104;20;128;30969;0;241
2596;104;21;128;30796;94;162
2597;104;22;128;30622;0;149
2598;104;23;128;30449;96;71
2599;104;24;128;30279;0;61
2600;104;25;128;30118;0;155
2601;105;1;129;29975;0;13
2602;105;2;128;29876;92;4
2603;105;3;128;29871;97;4
2604;105;4;128;30035;45;117
2605;105;5;128;30447;97;70
2606;105;6;128;31167;0;184
2607;105;7;128;32204;0;201
2608;105;8;128;33497;0;219
2609;105;9;128;34926;97;215
2610;105;10;128;36330;97;88
2611;105;11;128;37555;97;38
2612;105;12;128;38481;0;103
2613;105;13;128;39052;0;164
2614;105;14;128;39258;0;115
2615;105;15;128;39137;94;87
2616;105;16;128;38751;97;215
2617;105;17;128;38170;97;144
2618;105;18;130;37454;0;98
2619;105;19;130;36651;0;60
2620;105;20;130;35801;0;230
2621;105;21;130;34938;92;224
2622;105;22;130;34094;0;53
2623;105;23;130;33309;94;127
2624;105;24;130;32622;0;111
2625;105;25;130;32066;0;65
2626;106;1;131;31661;0;171
2627;106;2;130;31410;92;10
2628;106;3;128;31296;97;155
2629;106;4;128;31291;45;98
2630;106;5;128;31359;97;218
2631;106;6;128;31462;0;224
2632;106;7;128;31570;0;77
2633;106;8;128;31658;0;165
2634;106;9;128;31708;97;56
2635;106;10;128;31714;97;62
2636;106;11;128;31675;97;23
2637;106;12;128;31595;0;102
2638;106;13;128;31483;0;245
2639;106;14;128;31345;0;107
2640;106;15;128;31191;94;46
2641;106;16;128;31026;97;140
2642;106;17;128;30854;97;223
2643;106;18;128;30678;0;205
2644;106;19;128;30501;0;28
2645;106;20;128;30325;0;107
2646;106;21;128;30153;92;26
2647;106;22;128;29991;0;28
2648;106;23;128;29849;94;235
2649;106;24;128;29752;0;44
2650;106;25;128;29750;0;42
2651;107;1;129;29917;0;210
2652;107;2;128;30335;92;209
2653;107;3;128;31070;97;184
2654;107;4;128;32133;45;175
2655;107;5;128;33466;97;29
2656;107;6;128;34947;0;139
2657;107;7;128;36414;0;76
2658;107;8;128;37704;0;91
2659;107;9;128;38692;97;156
2660;107;10;128;39313;97;11
2661;107;11;128;39556;97;255
2662;107;12;128;39457;0;59
2663;107;13;128;39080;0;192
2664;107;14;128;38497;0;119
2665;107;15;130;37771;94;254
2666;107;16;130;36952;97;203
2667;107;17;130;36078;97;93
2668;107;18;130;35184;0;123
2669;107;19;130;34303;0;6
2670;107;20;130;33478;0;202
2671;107;21;130;32749;92;74
2672;107;22;130;32150;0;149
2673;107;23;130;31700;94;47
2674;107;24;130;31402;0;166
2675;107;25;128;31244;0;6
2676;108;1;129;31200;0;218
2677;108;2;128;31236;92;90
2678;108;3;128;31315;97;174
2679;108;4;128;31407;45;214
2680;108;5;128;31484;97;87
2681;108;6;128;31529;0;36
2682;108;7;128;31531;0;38
2683;108;8;128;31487;0;249
2684;108;9;128;31402;97;5
2685;108;10;128;31281;97;140
2686;108;11;128;31135;97;249
2687;108;12;128;30969;0;241
2688;108;13;128;30789;0;61
2689;108;14;128;30599;0;126
2690;108;15;128;30403;94;23
2691;108;16;128;30204;97;82
2692;108;17;128;30005;97;139
2693;108;18;128;29814;0;106
2694;108;19;128;29638;0;185
2695;108;20;128;29491;0;38
2696;108;21;128;29402;92;40
2697;108;22;128;29431;0;233
2698;108;23;128;29657;94;42
2699;108;24;128;30166;0;203
2700;108;25;128;31012;0;29
2701;109;1;129;32190;0;188
2702;109;2;128;33622;92;181
2703;109;3;128;35165;97;199
2704;109;4;128;36644;45;96
2705;109;5;128;37901;97;130
2706;109;6;128;38824;0;191
2707;109;7;128;39363;0;220
2708;109;8;128;39523;0;125
2709;109;9;128;39352;97;50
2710;109;10;128;38920;97;129
2711;109;11;128;38297;97;15
2712;109;12;130;37542;0;186
2713;109;13;130;36702;0;111
2714;109;14;130;35814;0;243
2715;109;15;130;34910;94;198
2716;109;16;130;34032;97;87
2717;109;17;130;33217;97;37
2718;109;18;130;32508;0;252
2719;109;19;130;31936;0;190
2720;109;20;130;31521;0;30
2721;109;21;130;31261;92;117
2722;109;22;128;31140;0;157
2723;109;23;128;31131;94;242
2724;109;24;128;31196;0;213
2725;109;25;128;31295;0;57
2726;110;1;129;31392;0;155
2727;110;2;128;31461;92;59
2728;110;3;128;31484;97;87
2729;110;4;128;31457;45;8
2730;110;5;128;31382;97;241
2731;110;6;128;31268;0;30
2732;110;7;128;31122;0;139
2733;110;8;128;30950;0;222
2734;110;9;128;30755;97;124
2735;110;10;128;30546;97;170
2736;110;11;128;30327;97;206
2737;110;12;128;30102;0;139
2738;110;13;128;29878;0;170
2739;110;14;128;29663;0;210
2740;110;15;128;29462;94;103
2741;110;16;128;29283;97;182
2742;110;17;128;29146;97;44
2743;110;18;128;29084;0;141
2744;110;19;128;29157;0;214
2745;110;20;128;29443;0;246
2746;110;21;128;30019;92;148
2747;110;22;128;30925;0;197
2748;110;23;128;32141;94;232
2749;110;24;128;33575;0;42
2750;110;25;128;35081;0;18
2751;111;1;129;36490;0;153
2752;111;2;128;37657;92;136
2753;111;3;128;38480;97;199
2754;111;4;128;38921;45;78
2755;111;5;128;38992;97;201
2756;111;6;128;38748;0;115
2757;111;7;128;38253;0;130
2758;111;8;130;37579;0;223
2759;111;9;130;36783;97;33
2760;111;10;130;35914;97;185
2761;111;11;130;35008;97;43
2762;111;12;130;34105;0;64
2763;111;13;130;33247;0;226
2764;111;14;130;32477;0;221
2765;111;15;130;31831;94;179
2766;111;16;130;31333;97;194
2767;111;17;130;30995;97;111
2768;111;18;128;30806;0;78
2769;111;19;128;30744;0;16
2770;111;20;128;30778;0;50
2771;111;21;128;30870;92;234
2772;111;22;128;30986;0;3
2773;111;23;128;31097;94;208
2774;111;24;128;31180;0;197
2775;111;25;128;31222;0;239
2776;112;1;129;31217;0;235
2777;112;2;128;31166;93;20
2778;112;3;128;31074;97;188
2779;112;4;128;30947;45;8
2780;112;5;128;30791;97;160
2781;112;6;128;30612;0;139
2782;112;7;128;30415;0;197
2783;112;8;128;30210;0;248
2784;112;9;128;30001;97;135
2785;112;10;128;29798;97;187
2786;112;11;128;29607;97;251
2787;112;12;128;29433;0;235
2788;112;13;128;29285;0;87
2789;112;14;128;29187;0;245
2790;112;15;128;29183;94;78
2791;112;16;128;29344;97;243
2792;112;17;128;29750;97;139
2793;112;18;128;30463;0;245
2794;112;19;128;31498;0;5
2795;112;20;128;32802;0;34
2796;112;21;128;34259;92;52
2797;112;22;128;35713;0;140
2798;112;23;128;37004;94;250
2799;112;24;128;38005;0;137
2800;112;25;128;38643;0;9
2801;113;1;129;38906;0;18
2802;113;2;128;38825;93;29
2803;113;3;128;38459;97;178
2804;113;4;128;37876;45;52
2805;113;5;130;37141;97;137
2806;113;6;130;36304;0;223
2807;113;7;130;35410;0;94
2808;113;8;130;34503;0;207
2809;113;9;130;33626;97;192
2810;113;10;130;32825;97;156
2811;113;11;130;32139;97;235
2812;113;12;130;31601;0;110
2813;113;13;130;31228;0;247
2814;113;14;130;31016;0;35
2815;113;15;128;30942;94;52
2816;113;16;128;30973;97;86
2817;113;17;128;31072;97;186
2818;113;18;128;31202;0;219
2819;113;19;128;31330;0;92
2820;113;20;128;31433;0;195
2821;113;21;128;31497;92;96
2822;113;22;128;31512;0;19
2823;113;23;128;31478;94;78
2824;113;24;128;31398;0;160
2825;113;25;128;31279;0;41
2826;114;1;129;31127;0;145
2827;114;2;128;30949;94;59
2828;114;3;128;30752;97;121
2829;114;4;128;30542;45;114
2830;114;5;128;30330;97;209
2831;114;6;128;30121;0;158
2832;114;7;128;29923;0;215
2833;114;8;128;29741;0;33
2834;114;9;128;29587;97;231
2835;114;10;128;29486;97;130
2836;114;11;128;29479;97;123
2837;114;12;128;29637;0;184
2838;114;13;128;30039;0;76
2839;114;14;128;30746;0;18
2840;114;15;128;31769;94;115
2841;114;16;128;33056;97;130
2842;114;17;128;34492;97;35
2843;114;18;128;35920;0;92
2844;114;19;128;37182;0;79
2845;114;20;128;38152;0;29
2846;114;21;128;38764;94;225
2847;114;22;128;39001;0;113
2848;114;23;128;38894;94;99
2849;114;24;128;38500;0;122
2850;114;25;128;37885;0;16
2851;115;1;131;37110;0;9
2852;115;2;130;36229;95;243
2853;115;3;130;35291;97;71
2854;115;4;130;34345;45;94
2855;115;5;130;33443;97;8
2856;115;6;130;32635;0;124
2857;115;7;130;31965;0;219
2858;115;8;130;31464;0;228
2859;115;9;130;31142;97;2
2860;115;10;130;30986;97;102
2861;115;11;128;30967;97;80
2862;115;12;128;31048;0;65
2863;115;13;128;31185;0;202
2864;115;14;128;31337;0;99
2865;115;15;128;31474;95;75
2866;115;16;128;31576;97;180
2867;115;17;128;31630;97;234
2868;115;18;128;31633;0;140
2869;115;19;128;31586;0;93
2870;115;20;128;31494;0;1
2871;115;21;128;31364;94;220
2872;115;22;128;31203;0;220
2873;115;23;128;31020;94;131
2874;115;24;128;30823;0;95
2875;115;25;128;30617;0;144
2876;116;1;129;30408;0;191
2877;116;2;128;30202;95;78
2878;116;3;128;30004;97;138
2879;116;4;128;29821;45;158
2880;116;5;128;29667;97;55
2881;116;6;128;29573;0;120
2882;116;7;128;29594;0;141
2883;116;8;128;29807;0;99
2884;116;9;128;30295;97;174
2885;116;10;128;31107;97;221
2886;116;11;128;32236;97;74
2887;116;12;128;33607;0;74
2888;116;13;128;35083;0;20
2889;116;14;128;36498;0;160
2890;116;15;128;37697;95;179
2891;116;16;128;38572;97;35
2892;116;17;128;39070;97;23
2893;116;18;128;39191;0;48
2894;116;19;128;38978;0;90
2895;116;20;128;38496;0;118
2896;116;21;130;37812;94;39
2897;116;22;130;36984;0;138
2898;116;23;130;36065;94;77
2899;116;24;130;35105;0;44
2900;116;25;130;34157;0;116
2901;117;1;131;33275;0;255
2902;117;2;130;32511;95;94
2903;117;3;130;31904;97;255
2904;117;4;130;31474;45;27
2905;117;5;130;31221;97;81
2906;117;6;128;31123;0;140
2907;117;7;128;31148;0;165
2908;117;8;128;31256;0;18
2909;117;9;128;31404;97;7
2910;117;10;128;31557;97;161
2911;117;11;128;31687;96;34
2912;117;12;128;31774;0;26
2913;117;13;128;31810;0;62
2914;117;14;128;31793;0;45
2915;117;15;128;31725;95;71
2916;117;16;128;31610;97;214
2917;117;17;128;31460;97;63
2918;117;18;128;31282;0;44
2919;117;19;128;31086;0;103
2920;117;20;128;30880;0;152
2921;117;21;128;30673;94;38
2922;117;22;128;30469;0;252
2923;117;23;128;30270;94;146
2924;117;24;128;30083;0;120
2925;117;25;128;29915;0;207
2926;118;1;129;29786;0;79
2927;118;2;128;29737;95;124
2928;118;3;128;29839;97;228
2929;118;4;128;30174;45;0
2930;118;5;128;30816;97;185
2931;118;6;128;31792;0;44
2932;118;7;128;33067;0;44
2933;118;8;128;34530;0;232
2934;118;9;128;36023;97;36
2935;118;10;128;37373;97;111
2936;118;11;128;38439;96;157
2937;118;12;128;39131;0;243
2938;118;13;128;39425;0;27
2939;118;14;128;39347;0;204
2940;118;15;128;38958;95;165
2941;118;16;128;38329;97;47
2942;118;17;130;37530;97;15
2943;118;18;130;36620;0;29
2944;118;19;130;35647;0;76
2945;118;20;130;34659;0;108
2946;118;21;130;33705;95;13
2947;118;22;130;32840;0;74
2948;118;23;130;32115;95;209
2949;118;24;130;31566;0;75
2950;118;25;130;31210;0;229
2951;119;1;131;31035;0;55
2952;119;2;128;31009;96;122
2953;119;3;128;31087;97;201
2954;119;4;128;31221;45;27
2955;119;5;128;31368;97;227
2956;119;6;128;31499;0;6
2957;119;7;128;31595;0;102
2958;119;8;128;31647;0;154
2959;119;9;128;31653;97;1
2960;119;10;128;31614;97;218
2961;119;11;128;31534;97;138
2962;119;12;128;31416;0;178
2963;119;13;128;31266;0;28
2964;119;14;128;31089;0;106
2965;119;15;128;30892;95;3
2966;119;16;128;30683;97;51
2967;119;17;128;30469;97;93
2968;119;18;128;30256;0;38
2969;119;19;128;30048;0;85
2970;119;20;128;29854;0;146
2971;119;21;128;29687;95;73
2972;119;22;128;29579;0;126
2973;119;23;128;29582;95;224
2974;119;24;128;29782;0;74
2975;119;25;128;30262;0;44
2976;120;1;129;31083;0;101
2977;120;2;128;32242;96;79
2978;120;3;128;33665;97;229
2979;120;4;128;35211;45;193
2980;120;5;128;36704;97;208
2981;120;6;128;37975;0;107
2982;120;7;128;38905;0;16
2983;120;8;128;39436;0;38
2984;120;9;128;39570;97;13
2985;120;10;128;39352;97;50
2986;120;11;128;38855;97;63
2987;120;12;130;38151;0;30
2988;120;13;130;37305;0;204
2989;120;14;130;36368;0;32
2990;120;15;130;35387;95;166
2991;120;16;130;34410;97;211
2992;120;17;130;33491;97;56
2993;120;18;130;32685;0;174
2994;120;19;130;32038;0;37
2995;120;20;130;31576;0;85
2996;120;21;130;31304;95;163
2997;120;22;128;31198;0;215
2998;120;23;128;31222;95;78
2999;120;24;128;31332;0;94
3000;120;25;128;31483;0;245
3001;121;1;129;31635;0;143
3002;121;2;128;31759;97;108
3003;121;3;128;31838;97;187
3004;121;4;128;31860;45;157
3005;121;5;128;31825;97;174
3006;121;6;128;31737;0;244
3007;121;7;128;31603;0;110
3008;121;8;128;31429;0;191
3009;121;9;128;31230;97;88
3010;121;10;128;31013;97;127
3011;121;11;128;30785;96;153
3012;121;12;128;30551;0;78
3013;121;13;128;30317;0;99
3014;121;14;128;30088;0;125
3015;121;15;128;29868;96;0
3016;121;16;128;29673;97;61
3017;121;17;128;29527;97;171
3018;121;18;128;29477;0;24
3019;121;19;128;29598;0;145
3020;121;20;128;29978;0;15
3021;121;21;128;30690;95;56
3022;121;22;128;31760;0;12
3023;121;23;128;33138;95;210
3024;121;24;128;34701;0;148
3025;121;25;128;36274;0;191
3026;122;1;129;37680;0;68
3027;122;2;128;38774;97;238
3028;122;3;128;39475;97;174
3029;122;4;128;39763;45;155
3030;122;5;128;39672;97;115
3031;122;6;128;39270;0;127
3032;122;7;128;38628;0;250
3033;122;8;130;37820;0;209
3034;122;9;130;36901;97;152
3035;122;10;130;35918;97;189
3036;122;11;130;34915;96;205
3037;122;12;130;33943;0;157
3038;122;13;130;33054;0;33
3039;122;14;130;32302;0;46
3040;122;15;130;31725;96;74
3041;122;16;130;31341;97;202
3042;122;17;130;31138;97;254
3043;122;18;128;31085;0;102
3044;122;19;128;31140;0;157
3045;122;20;128;31258;0;20
3046;122;21;128;31395;95;252
3047;122;22;128;31518;0;25
3048;122;23;128;31604;95;206
3049;122;24;128;31635;0;142
3050;122;25;128;31609;0;116
3051;123;1;129;31527;0;35
3052;123;2;128;31398;97;1
3053;123;3;128;31228;97;86
3054;123;4;128;31027;45;89
3055;123;5;128;30804;97;173
3056;123;6;128;30569;0;96
3057;123;7;128;30329;0;111
3058;123;8;128;30089;0;126
3059;123;9;128;29855;97;244
3060;123;10;128;29631;97;19
3061;123;11;128;29426;97;69
3062;123;12;128;29257;0;59
3063;123;13;128;29163;0;220
3064;123;14;128;29208;0;10
3065;123;15;128;29479;96;122
3066;123;16;128;30064;97;198
3067;123;17;128;31015;97;129
3068;123;18;128;32320;0;62
3069;123;19;128;33889;0;101
3070;123;20;128;35563;0;245
3071;123;21;128;37153;97;147
3072;123;22;128;38484;0;106
3073;123;23;128;39438;96;136
3074;123;24;128;39962;0;54
3075;123;25;128;40070;0;162
3076;124;1;129;39814;0;162
3077;124;2;128;39278;97;232
3078;124;3;130;38541;97;6
3079;124;4;130;37669;45;103
3080;124;5;130;36716;97;222
3081;124;6;130;35723;0;152
3082;124;7;130;34727;0;176
3083;124;8;130;33775;0;244
3084;124;9;130;32916;97;247
3085;124;10;130;32193;97;33
3086;124;11;130;31640;97;246
3087;124;12;130;31271;0;35
3088;124;13;128;31077;0;94
3089;124;14;128;31028;0;45
3090;124;15;128;31082;96;195
3091;124;16;128;31194;97;52
3092;124;17;128;31318;97;177
3093;124;18;128;31419;0;181
3094;124;19;128;31472;0;234
3095;124;20;128;31467;0;229
3096;124;21;128;31402;97;5
3097;124;22;128;31284;0;46
3098;124;23;128;31125;96;238
3099;124;24;128;30933;0;205
3100;124;25;128;30717;0;244
3101;125;1;129;30485;0;13
3102;125;2;128;30245;98;125
3103;125;3;128;30000;97;134
3104;125;4;128;29759;45;96
3105;125;5;128;29524;97;168
3106;125;6;128;29300;0;102
3107;125;7;128;29098;0;155
3108;125;8;128;28936;0;249
3109;125;9;128;28860;97;13
3110;125;10;128;28942;97;96
3111;125;11;128;29277;96;175
3112;125;12;128;29949;0;241
3113;125;13;128;31003;0;20
3114;125;14;128;32411;0;153
3115;125;15;128;34066;96;119
3116;125;16;128;35799;97;67
3117;125;17;128;37415;97;154
3118;125;18;128;38745;0;112
3119;125;19;128;39678;0;24
3120;125;20;128;40170;0;6
3121;125;21;128;40240;97;174
3122;125;22;128;39949;0;41
3123;125;23;128;39386;96;83
3124;125;24;130;38630;0;254
3125;125;25;130;37748;0;137
3126;126;1;131;36788;0;198
3127;126;2;130;35786;98;57
3128;126;3;130;34777;97;67
3129;126;4;130;33799;45;58
3130;126;5;130;32903;97;234
3131;126;6;130;32136;0;135
3132;126;7;130;31537;0;46
3133;126;8;130;31126;0;145
3134;126;9;128;30898;97;11
3135;126;10;128;30827;97;196
3136;126;11;128;30867;96;235
3137;126;12;128;30973;0;245
3138;126;13;128;31095;0;112
3139;126;14;128;31194;0;211
3140;126;15;128;31245;97;104
3141;126;16;128;31240;97;99
3142;126;17;128;31173;97;31
3143;126;18;128;31052;0;69
3144;126;19;128;30886;0;158
3145;126;20;128;30686;0;213
3146;126;21;128;30461;97;84
3147;126;22;128;30222;0;4
3148;126;23;128;29975;96;108
3149;126;24;128;29727;0;19
3150;126;25;128;29478;0;25
3151;127;1;129;29233;0;36
3152;127;2;128;29000;98;155
3153;127;3;128;28786;97;195
3154;127;4;128;28602;45;214
3155;127;5;128;28475;97;139
3156;127;6;128;28453;0;20
3157;127;7;128;28615;0;182
3158;127;8;128;29056;0;113
3159;127;9;128;29857;97;246
3160;127;10;128;31050;97;164
3161;127;11;128;32588;96;171
3162;127;12;128;34342;0;44
3163;127;13;128;36128;0;45
3164;127;14;128;37748;0;135
3165;127;15;128;39039;97;248
3166;127;16;128;39902;97;90
3167;127;17;128;40309;97;243
3168;127;18;128;40294;0;131
3169;127;19;128;39928;0;19
3170;127;20;128;39303;0;160
3171;127;21;130;38501;98;223
3172;127;22;130;37588;0;232
3173;127;23;130;36608;97;114
3174;127;24;130;35594;0;23
3175;127;25;130;34581;0;30
3176;128;1;131;33611;0;81
3177;128;2;130;32726;98;57
3178;128;3;130;31977;97;72
3179;128;4;130;31397;45;206
3180;128;5;130;31004;97;120
3181;128;6;128;30790;0;62
3182;128;7;128;30729;0;1
3183;128;8;128;30778;0;50
3184;128;9;128;30887;97;0
3185;128;10;128;31012;97;126
3186;128;11;128;31112;96;225
3187;128;12;128;31164;0;181
3188;128;13;128;31156;0;173
3189;128;14;128;31092;0;109
3190;128;15;128;30976;97;90
3191;128;16;128;30820;97;189
3192;128;17;128;30635;97;3
3193;128;18;128;30426;0;208
3194;128;19;128;30197;0;234
3195;128;20;128;29955;0;248
3196;128;21;128;29708;98;98
3197;128;22;128;29461;0;8
3198;128;23;128;29221;97;120
3199;128;24;128;28996;0;53
3200;128;25;128;28791;0;103
3201;129;1;129;28614;0;182
3202;129;2;128;28483;98;148
3203;129;3;128;28423;97;87
3204;129;4;128;28486;45;98
3205;129;5;128;28754;97;163
3206;129;6;128;29318;0;120
3207;129;7;128;30245;0;27
3208;129;8;128;31551;0;58
3209;129;9;128;33166;97;240
3210;129;10;128;34946;97;235
3211;129;11;128;36700;96;203
3212;129;12;128;38237;0;114
3213;129;13;128;39413;0;14
3214;129;14;128;40156;0;248
3215;129;15;128;40460;97;139
3216;129;16;128;40371;97;49
3217;129;17;128;39963;97;152
3218;129;18;128;39322;0;179
3219;129;19;130;38518;0;142
3220;129;20;130;37601;0;245
3221;129;21;130;36609;98;116
3222;129;22;130;35575;0;3
3223;129;23;130;34540;97;85
3224;129;24;130;33556;0;25
3225;129;25;130;32679;0;168
3226;130;1;131;31961;0;216
3227;130;2;130;31432;98;38
3228;130;3;130;31096;97;212
3229;130;4;128;30934;45;251
3230;130;5;128;30915;97;28
3231;130;6;128;30997;0;14
3232;130;7;128;31135;0;152
3233;130;8;128;31288;0;50
3234;130;9;128;31422;97;25
3235;130;10;128;31509;97;113
3236;130;11;128;31537;96;140
3237;130;12;128;31506;0;13
3238;130;13;128;31419;0;181
3239;130;14;128;31288;0;50
3240;130;15;128;31121;97;235
3241;130;16;128;30926;97;39
3242;130;17;128;30708;97;76
3243;130;18;128;30479;0;6
3244;130;19;128;30242;0;24
3245;130;20;128;30004;0;41
3246;130;21;128;29770;98;160
3247;130;22;128;29548;0;95
3248;130;23;128;29344;97;243
3249;130;24;128;29168;0;225
3250;130;25;128;29033;0;90
3251;131;1;129;28970;0;28
3252;131;2;128;29027;98;182
3253;131;3;128;29280;97;179
3254;131;4;128;29817;45;154
3255;131;5;128;30699;97;67
3256;131;6;128;31924;0;176
3257;131;7;128;33419;0;141
3258;131;8;128;35038;0;230
3259;131;9;128;36603;97;106
3260;131;10;128;37942;97;171
3261;131;11;128;38930;96;138
3262;131;12;128;39506;0;108
3263;131;13;128;39671;0;17
3264;131;14;128;39464;0;66
3265;131;15;128;38951;97;160
3266;131;16;130;38196;97;172
3267;131;17;130;37263;97;3
3268;131;18;130;36203;0;122
3269;131;19;130;35075;0;14
3270;131;20;130;33942;0;156
3271;131;21;130;32873;98;205
3272;131;22;130;31938;0;192
3273;131;23;130;31190;97;50
3274;131;24;130;30655;0;184
3275;131;25;130;30335;0;119
3276;132;1;129;30207;0;245
3277;132;2;128;30230;98;110
3278;132;3;128;30355;96;233
3279;132;4;128;30534;45;106
3280;132;5;128;30721;96;89
3281;132;6;128;30885;0;157
3282;132;7;128;31007;0;24
3283;132;8;128;31075;0;92
3284;132;9;128;31086;97;200
3285;132;10;128;31043;96;156
3286;132;11;128;30948;96;60
3287;132;12;128;30806;0;78
3288;132;13;128;30629;0;156
3289;132;14;128;30426;0;208
3290;132;15;128;30202;97;80
3291;132;16;128;29968;97;102
3292;132;17;128;29735;97;124
3293;132;18;128;29516;0;63
3294;132;19;128;29322;0;124
3295;132;20;128;29165;0;222
3296;132;21;128;29056;98;211
3297;132;22;128;29004;0;61
3298;132;23;128;29028;97;182
3299;132;24;128;29163;0;220
3300;132;25;128;29467;0;14
3301;133;1;129;29998;0;36
3302;133;2;128;30793;98;163
3303;133;3;128;31838;96;186
3304;133;4;128;33065;45;87
3305;133;5;128;34349;96;147
3306;133;6;128;35549;0;231
3307;133;7;128;36531;0;193
3308;133;8;128;37204;0;101
3309;133;9;128;37527;97;10
3310;133;10;128;37498;96;236
3311;133;11;128;37150;96;143
3312;133;12;128;36532;0;194
3313;133;13;130;35704;0;133
3314;133;14;130;34732;0;181
3315;133;15;130;33688;97;254
3316;133;16;130;32650;97;236
3317;133;17;130;31695;97;45
3318;133;18;130;30891;0;165
3319;133;19;130;30282;0;66
3320;133;20;130;29888;0;182
3321;133;21;130;29698;98;90
3322;133;22;130;29681;0;230
3323;133;23;128;29790;97;179
3324;133;24;128;29975;0;12
3325;133;25;128;30186;0;223
3326;134;1;129;30381;0;164
3327;134;2;128;30531;97;155
3328;134;3;128;30620;96;243
3329;134;4;128;30648;45;220
3330;134;5;128;30624;96;247
3331;134;6;128;30560;0;87
3332;134;7;128;30468;0;251
3333;134;8;128;30357;0;139
3334;134;9;128;30232;97;111
3335;134;10;128;30099;96;232
3336;134;11;128;29958;96;91
3337;134;12;128;29813;0;105
3338;134;13;128;29667;0;214
3339;134;14;128;29521;0;68
3340;134;15;128;29378;97;21
3341;134;16;128;29244;97;143
3342;134;17;128;29131;97;29
3343;134;18;128;29057;0;114
3344;134;19;128;29059;0;116
3345;134;20;128;29198;0;0
3346;134;21;128;29551;98;196
3347;134;22;128;30186;0;223
3348;134;23;128;31135;97;249
3349;134;24;128;32371;0;113
3350;134;25;128;33796;0;8
3351;135;1;129;35262;0;200
3352;135;2;128;36603;97;106
3353;135;3;128;37677;96;160
3354;135;4;128;38395;45;61
3355;135;5;128;38724;96;187
3356;135;6;128;38687;0;54
3357;135;7;128;38339;0;216
3358;135;8;128;37747;0;134
3359;135;9;130;36971;97;222
3360;135;10;130;36068;96;82
3361;135;11;130;35089;96;124
3362;135;12;130;34092;0;51
3363;135;13;130;33137;0;116
3364;135;14;130;32287;0;31
3365;135;15;130;31601;97;207
3366;135;16;130;31109;97;225
3367;135;17;130;30820;97;191
3368;135;18;130;30714;0;243
3369;135;19;128;30755;0;27
3370;135;20;128;30895;0;167
3371;135;21;128;31084;98;199
3372;135;22;128;31276;0;38
3373;135;23;128;31441;97;44
3374;135;24;128;31556;0;63
3375;135;25;128;31613;0;120
3376;136;1;129;31615;0;123
3377;136;2;128;31568;97;172
3378;136;3;128;31482;96;84
3379;136;4;128;31364;45;171
3380;136;5;128;31222;96;79
3381;136;6;128;31060;0;77
3382;136;7;128;30884;0;156
3383;136;8;128;30696;0;223
3384;136;9;128;30498;96;121
3385;136;10;128;30296;96;174
3386;136;11;128;30098;96;231
3387;136;12;128;29913;0;205
3388;136;13;128;29753;0;45
3389;136;14;128;29641;0;188
3390;136;15;128;29616;97;4
3391;136;16;128;29743;97;132
3392;136;17;128;30107;97;241
3393;136;18;128;30781;0;53
3394;136;19;128;31796;0;48
3395;136;20;128;33113;0;90
3396;136;21;128;34624;97;168
3397;136;22;128;36171;0;88
3398;136;23;128;37583;97;66
3399;136;24;128;38719;0;86
3400;136;25;128;39493;0;95
3401;137;1;129;39877;0;225
3402;137;2;128;39898;97;86
3403;137;3;128;39612;96;54
3404;137;4;128;39092;45;249
3405;137;5;130;38405;96;125
3406;137;6;130;37607;0;251
3407;137;7;130;36738;0;147
3408;137;8;130;35835;0;8
3409;137;9;130;34933;96;223
3410;137;10;130;34075;96;130
3411;137;11;130;33309;96;129
3412;137;12;130;32676;0;165
3413;137;13;130;32200;0;199
3414;137;14;130;31889;0;143
3415;137;15;128;31725;97;73
3416;137;16;128;31679;97;27
3417;137;17;128;31707;97;55
3418;137;18;128;31769;0;21
3419;137;19;128;31830;0;82
3420;137;20;128;31866;0;118
3421;137;21;128;31866;97;215
3422;137;22;128;31824;0;76
3423;137;23;128;31742;97;90
3424;137;24;128;31625;0;132
3425;137;25;128;31473;0;235
3426;138;1;129;31286;0;49
3427;138;2;128;31070;97;184
3428;138;3;128;30829;96;197
3429;138;4;128;30572;45;144
3430;138;5;128;30314;96;192
3431;138;6;128;30066;0;103
3432;138;7;128;29834;0;126
3433;138;8;128;29628;0;175
3434;138;9;128;29455;96;98
3435;138;10;128;29336;96;234
3436;138;11;128;29308;96;206
3437;138;12;128;29432;0;234
3438;138;13;128;29785;0;77
3439;138;14;128;30428;0;210
3440;138;15;128;31375;97;234
3441;138;16;128;32580;96;163
3442;138;17;128;33933;97;242
3443;138;18;128;35279;0;216
3444;138;19;128;36467;0;129
3445;138;20;128;37375;0;16
3446;138;21;128;37941;97;170
3447;138;22;128;38156;0;33
3448;138;23;128;38058;97;31
3449;138;24;128;37707;0;94
3450;138;25;128;37173;0;70
3451;139;1;131;36519;0;184
3452;139;2;130;35787;97;57
3453;139;3;130;35012;96;46
3454;139;4;130;34219;45;223
3455;139;5;130;33438;96;2
3456;139;6;130;32703;0;192
3457;139;7;130;32054;0;53
3458;139;8;130;31527;0;36
3459;139;9;130;31145;96;4
3460;139;10;130;30910;96;24
3461;139;11;128;30810;96;178
3462;139;12;128;30817;0;89
3463;139;13;128;30893;0;165
3464;139;14;128;31003;0;20
3465;139;15;128;31114;97;228
3466;139;16;128;31201;96;58
3467;139;17;128;31247;97;106
3468;139;18;128;31244;0;6
3469;139;19;128;31190;0;207
3470;139;20;128;31089;0;106
3471;139;21;128;30950;97;63
3472;139;22;128;30778;0;50
3473;139;23;128;30581;97;205
3474;139;24;128;30367;0;149
3475;139;25;128;30142;0;179
3476;140;1;129;29913;0;206
3477;140;2;128;29688;97;76
3478;140;3;128;29474;96;117
3479;140;4;128;29275;45;122
3480;140;5;128;29105;96;2
3481;140;6;128;28982;0;39
3482;140;7;128;28955;0;12
3483;140;8;128;29096;0;153
3484;140;9;128;29484;96;127
3485;140;10;128;30172;96;49
3486;140;11;128;31155;96;12
3487;140;12;128;32359;0;101
3488;140;13;128;33652;0;119
3489;140;14;128;34877;0;69
3490;140;15;128;35894;97;163
3491;140;16;128;36616;96;119
3492;140;17;128;37011;96;3
3493;140;18;128;37098;0;250
3494;140;19;128;36925;0;77
3495;140;20;128;36554;0;216
3496;140;21;128;36044;97;57
3497;140;22;130;35443;0;127
3498;140;23;130;34782;97;72
3499;140;24;130;34089;0;48
3500;140;25;130;33390;0;114
3501;141;1;131;32713;0;203
3502;141;2;130;32092;97;188
3503;141;3;130;31564;96;169
3504;141;4;130;31159;45;223
3505;141;5;130;30893;96;7
3506;141;6;130;30766;0;40
3507;141;7;128;30759;0;31
3508;141;8;128;30846;0;118
3509;141;9;128;30991;96;104
3510;141;10;128;31157;96;14
3511;141;11;128;31313;96;171
3512;141;12;128;31438;0;200
3513;141;13;128;31520;0;27
3514;141;14;128;31552;0;59
3515;141;15;128;31534;97;138
3516;141;16;128;31472;96;74
3517;141;17;128;31371;96;229
3518;141;18;128;31239;0;1
3519;141;19;128;31083;0;100
3520;141;20;128;30914;0;186
3521;141;21;128;30738;97;107
3522;141;22;128;30563;0;90
3523;141;23;128;30397;97;20
3524;141;24;128;30243;0;25
3525;141;25;128;30110;0;147
3526;142;1;129;30013;0;51
3527;142;2;128;29985;97;119
3528;142;3;128;30087;96;220
3529;142;4;128;30397;45;224
3530;142;5;128;30977;96;90
3531;142;6;128;31840;0;92
3532;142;7;128;32933;0;165
3533;142;8;128;34139;0;96
3534;142;9;128;35304;96;81
3535;142;10;128;36283;96;40
3536;142;11;128;36978;96;226
3537;142;12;128;37352;0;249
3538;142;13;128;37423;0;65
3539;142;14;128;37240;0;137
3540;142;15;128;36863;97;111
3541;142;16;128;36353;96;111
3542;142;17;130;35760;96;29
3543;142;18;130;35116;0;55
3544;142;19;130;34447;0;151
3545;142;20;130;33777;0;246
3546;142;21;130;33138;97;214
3547;142;22;130;32560;0;49
3548;142;23;130;32079;97;175
3549;142;24;130;31720;0;229
3550;142;25;130;31501;0;10
3551;143;1;131;31418;0;183
3552;143;2;128;31453;97;56
3553;143;3;128;31578;96;181
3554;143;4;128;31756;45;53
3555;143;5;128;31948;96;40
3556;143;6;128;32120;0;117
3557;143;7;128;32252;0;249
3558;143;8;128;32333;0;75
3559;143;9;128;32358;96;196
3560;143;10;128;32332;96;170
3561;143;11;128;32262;95;99
3562;143;12;128;32155;0;152
3563;143;13;128;32021;0;18
3564;143;14;128;31869;0;121
3565;143;15;128;31705;97;53
3566;143;16;128;31535;96;138
3567;143;17;128;31364;96;222
3568;143;18;128;31195;0;212
3569;143;19;128;31037;0;54
3570;143;20;128;30900;0;172
3571;143;21;128;30810;97;179
3572;143;22;128;30817;0;89
3573;143;23;128;30991;97;105
3574;143;24;128;31400;0;162
3575;143;25;128;32076;0;73
3576;144;1;129;32995;0;228
3577;144;2;128;34062;97;116
3578;144;3;128;35141;96;174
3579;144;4;128;36091;45;52
3580;144;5;128;36801;96;48
3581;144;6;128;37220;0;117
3582;144;7;128;37353;0;250
3583;144;8;128;37238;0;135
3584;144;9;128;36931;96;179
3585;144;10;128;36489;96;247
3586;144;11;130;35959;95;228
3587;144;12;130;35374;0;58
3588;144;13;130;34762;0;211
3589;144;14;130;34144;0;103
3590;144;15;130;33549;97;115
3591;144;16;130;33005;96;79
3592;144;17;130;32539;96;124
3593;144;18;130;32179;0;178
3594;144;19;130;31941;0;195
3595;144;20;130;31826;0;80
3596;144;21;128;31820;97;169
3597;144;22;128;31901;0;153
3598;144;23;128;32034;97;128
3599;144;24;128;32185;0;182
3600;144;25;128;32323;0;65
3601;145;1;129;32427;0;170
3602;145;2;128;32486;97;69
3603;145;3;128;32498;96;80
3604;145;4;128;32465;45;252
3605;145;5;128;32391;96;229
3606;145;6;128;32286;0;28
3607;145;7;128;32154;0;151
3608;145;8;128;32005;0;2
3609;145;9;128;31847;96;195
3610;145;10;128;31686;96;33
3611;145;11;128;31526;95;128
3612;145;12;128;31371;0;133
3613;145;13;128;31226;0;243
3614;145;14;128;31102;0;119
3615;145;15;128;31025;97;139
3616;145;16;128;31048;96;161
3617;145;17;128;31235;96;93
3618;145;18;128;31651;0;158
3619;145;19;128;32318;0;60
3620;145;20;128;33202;0;179
3621;145;21;128;34210;97;8
3622;145;22;128;35214;0;151
3623;145;23;128;36083;97;96
3624;145;24;128;36725;0;132
3625;145;25;128;37100;0;252
3626;146;1;129;37215;0;113
3627;146;2;128;37111;97;104
3628;146;3;128;36840;96;87
3629;146;4;128;36449;45;156
3630;146;5;130;35981;96;251
3631;146;6;130;35464;0;148
3632;146;7;130;34916;0;110
3633;146;8;130;34356;0;60
3634;146;9;130;33809;96;119
3635;146;10;130;33301;96;121
3636;146;11;130;32865;95;194
3637;146;12;130;32525;0;14
3638;146;13;130;32297;0;41
3639;146;14;130;32181;0;180
3640;146;15;128;32162;97;0
3641;146;16;128;32212;96;49
3642;146;17;128;32301;96;139
3643;146;18;128;32399;0;141
3644;146;19;128;32482;0;224
3645;146;20;128;32529;0;16
3646;146;21;128;32535;97;119
3647;146;22;128;32495;0;237
3648;146;23;128;32411;97;250
3649;146;24;128;32287;0;29
3650;146;25;128;32130;0;127
3651;147;1;129;31947;0;200
3652;147;2;128;31745;98;95
3653;147;3;128;31533;96;136
3654;147;4;128;31318;45;125
3655;147;5;128;31107;96;220
3656;147;6;128;30909;0;181
3657;147;7;128;30728;0;0
3658;147;8;128;30572;0;99
3659;147;9;128;30458;96;80
3660;147;10;128;30421;96;43
3661;147;11;128;30519;95;141
3662;147;12;128;30818;0;90
3663;147;13;128;31361;0;123
3664;147;14;128;32138;0;135
3665;147;15;128;33082;97;156
3666;147;16;128;34079;96;132
3667;147;17;128;34998;96;30
3668;147;18;128;35728;0;155
3669;147;19;128;36209;0;126
3670;147;20;128;36432;0;94
3671;147;21;128;36427;97;186
3672;147;22;128;36238;0;155
3673;147;23;128;35918;97;187
3674;147;24;130;35507;0;191
3675;147;25;130;35039;0;233
3676;148;1;131;34533;0;238
3677;148;2;130;34006;99;63
3678;148;3;130;33478;96;42
3679;148;4;130;32974;45;253
3680;148;5;130;32519;96;104
3681;148;6;130;32138;0;137
3682;148;7;130;31851;0;105
3683;148;8;130;31666;0;175
3684;148;9;128;31584;96;187
3685;148;10;128;31586;96;189
3686;148;11;128;31651;95;253
3687;148;12;128;31750;0;2
3688;148;13;128;31855;0;107
3689;148;14;128;31946;0;198
3690;148;15;128;32007;98;102
3691;148;16;128;32027;96;120
3692;148;17;128;32006;96;99
3693;148;18;128;31945;0;197
3694;148;19;128;31847;0;99
3695;148;20;128;31717;0;224
3696;148;21;128;31563;97;167
3697;148;22;128;31393;0;155
3698;148;23;128;31215;97;73
3699;148;24;128;31038;0;55
3700;148;25;128;30868;0;140
3701;149;1;129;30711;0;239
3702;149;2;128;30573;99;199
3703;149;3;128;30466;96;89
3704;149;4;128;30411;45;238
3705;149;5;128;30453;96;75
3706;149;6;128;30651;0;178
3707;149;7;128;31054;0;71
3708;149;8;128;31677;0;184
3709;149;9;128;32487;96;69
3710;149;10;128;33395;96;213
3711;149;11;128;34293;95;89
3712;149;12;128;35066;0;2
3713;149;13;128;35637;0;64
3714;149;14;128;35974;0;146
3715;149;15;128;36083;98;97
3716;149;16;128;35999;96;11
3717;149;17;128;35766;96;33
3718;149;18;128;35429;0;111
3719;149;19;130;35023;0;217
3720;149;20;130;34570;0;19
3721;149;21;130;34091;99;149
3722;149;22;130;33604;0;73
3723;149;23;130;33131;98;208
3724;149;24;130;32697;0;186
3725;149;25;130;32331;0;75
3726;150;1;131;32053;0;53
3727;150;2;130;31872;100;226
3728;150;3;130;31789;95;138
3729;150;4;128;31792;45;89
3730;150;5;128;31858;95;205
3731;150;6;128;31961;0;213
3732;150;7;128;32072;0;69
3733;150;8;128;32166;0;163
3734;150;9;128;32225;96;62
3735;150;10;128;32239;95;75
3736;150;11;128;32211;95;47
3737;150;12;128;32138;0;135
3738;150;13;128;32026;0;23
3739;150;14;128;31881;0;133
3740;150;15;128;31714;99;64
3741;150;16;128;31533;96;136
3742;150;17;128;31349;96;207
3743;150;18;128;31173;0;190
3744;150;19;128;31007;0;24
3745;150;20;128;30852;0;124
3746;150;21;128;30711;99;81
3747;150;22;128;30595;0;122
3748;150;23;128;30521;98;146
3749;150;24;128;30530;0;57
3750;150;25;128;30680;0;207
3751;151;1;129;31020;0;38
3752;151;2;128;31575;100;182
3753;151;3;128;32321;95;158
3754;151;4;128;33190;45;212
3755;151;5;128;34077;95;129
3756;151;6;128;34873;0;65
3757;151;7;128;35491;0;173
3758;151;8;128;35888;0;60
3759;151;9;128;36060;96;72
3760;151;10;128;36034;95;45
3761;151;11;128;35849;95;116
3762;151;12;128;35547;0;229
3763;151;13;130;35161;0;100
3764;151;14;130;34718;0;167
3765;151;15;130;34238;99;40
3766;151;16;130;33743;96;52
3767;151;17;130;33259;96;78
3768;151;18;130;32815;0;49
3769;151;19;130;32438;0;182
3770;151;20;130;32149;0;148
3771;151;21;130;31959;99;56
3772;151;22;130;31864;0;118
3773;151;23;128;31854;98;204
3774;151;24;128;31907;0;159
3775;151;25;128;31997;0;249
3776;152;1;129;32097;0;95
3777;152;2;128;32184;100;25
3778;152;3;128;32241;95;77
3779;152;4;128;32258;45;45
3780;152;5;128;32235;95;71
3781;152;6;128;32174;0;171
3782;152;7;128;32080;0;77
3783;152;8;128;31959;0;211
3784;152;9;128;31817;96;165
3785;152;10;128;31660;95;6
3786;152;11;128;31491;95;93
3787;152;12;128;31315;0;77
3788;152;13;128;31138;0;155
3789;152;14;128;30966;0;238
3790;152;15;128;30806;99;177
3791;152;16;128;30673;96;40
3792;152;17;128;30591;96;214
3793;152;18;128;30599;0;126
3794;152;19;128;30751;0;23
3795;152;20;128;31096;0;113
3796;152;21;128;31652;99;2
3797;152;22;128;32397;0;139
3798;152;23;128;33261;98;80
3799;152;24;128;34146;0;103
3800;152;25;128;34945;0;137
3801;153;1;129;35577;0;4
3802;153;2;128;35998;100;14
3803;153;3;128;36201;95;213
3804;153;4;128;36203;45;165
3805;153;5;128;36039;95;50
3806;153;6;128;35749;0;176
3807;153;7;130;35365;0;49
3808;153;8;130;34915;0;109
3809;153;9;130;34424;96;224
3810;153;10;130;33914;95;223
3811;153;11;130;33412;95;231
3812;153;12;130;32949;0;183
3813;153;13;130;32552;0;41
3814;153;14;130;32243;0;242
3815;153;15;130;32032;99;130
3816;153;16;130;31918;96;12
3817;153;17;128;31886;96;234
3818;153;18;128;31913;0;165
3819;153;19;128;31976;0;228
3820;153;20;128;32045;0;42
3821;153;21;128;32100;99;196
3822;153;22;128;32128;0;125
3823;153;23;128;32121;98;216
3824;153;24;128;32074;0;71
3825;153;25;128;31992;0;244
3826;154;1;129;31878;0;131
3827;154;2;128;31739;100;90
3828;154;3;128;31581;95;183
3829;154;4;128;31411;45;218
3830;154;5;128;31235;95;92
3831;154;6;128;31058;0;75
3832;154;7;128;30886;0;158
3833;154;8;128;30724;0;252
3834;154;9;128;30577;95;199
3835;154;10;128;30457;95;78
3836;154;11;128;30392;95;13
3837;154;12;128;30427;0;209
3838;154;13;128;30618;0;145
3839;154;14;128;31017;0;34
3840;154;15;128;31640;99;246
3841;154;16;128;32452;96;34
3842;154;17;128;33374;96;192
3843;154;18;128;34296;0;253
3844;154;19;128;35111;0;48
3845;154;20;128;35742;0;169
3846;154;21;128;36150;100;167
3847;154;22;128;36334;0;251
3848;154;23;128;36320;99;80
3849;154;24;128;36138;0;55
3850;154;25;128;35824;0;251
3851;155;1;131;35411;0;96
3852;155;2;130;34924;101;219
3853;155;3;130;34391;95;190
3854;155;4;130;33843;45;102
3855;155;5;130;33313;95;132
3856;155;6;130;32836;0;70
3857;155;7;130;32443;0;187
3858;155;8;130;32153;0;152
3859;155;9;130;31975;95;68
3860;155;10;130;31902;95;251
3861;155;11;128;31916;96;8
3862;155;12;128;31989;0;241
3863;155;13;128;32091;0;88
3864;155;14;128;32195;0;192
3865;155;15;128;32280;100;122
3866;155;16;128;32333;96;171
3867;155;17;128;32346;96;184
3868;155;18;128;32318;0;60
3869;155;19;128;32251;0;248
3870;155;20;128;32148;0;145
3871;155;21;128;32016;100;113
3872;155;22;128;31860;0;112
3873;155;23;128;31689;99;39
3874;155;24;128;31506;0;13
3875;155;25;128;31320;0;82
3876;156;1;129;31137;0;155
3877;156;2;128;30968;101;85
3878;156;3;128;30829;95;196
3879;156;4;128;30751;45;68
3880;156;5;128;30783;95;150
3881;156;6;128;30985;0;2
3882;156;7;128;31403;0;165
3883;156;8;128;32054;0;51
3884;156;9;128;32907;95;234
3885;156;10;128;33883;95;190
3886;156;11;128;34869;96;157
3887;156;12;128;35755;0;182
3888;156;13;128;36457;0;119
3889;156;14;128;36924;0;76
3890;156;15;128;37145;100;142
3891;156;16;128;37141;96;134
3892;156;17;128;36948;96;196
3893;156;18;128;36606;0;12
3894;156;19;130;36151;0;70
3895;156;20;130;35613;0;42
3896;156;21;130;35022;100;60
3897;156;22;130;34407;0;111
3898;156;23;130;33804;99;117
3899;156;24;130;33249;0;228
3900;156;25;130;32779;0;13
3901;157;1;131;32418;0;163
3902;157;2;130;32178;101;22
3903;157;3;130;32050;95;144
3904;157;4;128;32015;45;57
3905;157;5;128;32047;95;139
3906;157;6;128;32115;0;112
3907;157;7;128;32189;0;186
3908;157;8;128;32250;0;247
3909;157;9;128;32283;95;120
3910;157;10;128;32279;95;116
3911;157;11;128;32236;96;73
3912;157;12;128;32154;0;151
3913;157;13;128;32039;0;36
3914;157;14;128;31898;0;150
3915;157;15;128;31736;100;87
3916;157;16;128;31558;95;160
3917;157;17;128;31369;96;227
3918;157;18;128;31175;0;192
3919;157;19;128;30982;0;255
3920;157;20;128;30803;0;75
3921;157;21;128;30660;100;31
3922;157;22;128;30597;0;124
3923;157;23;128;30672;99;42
3924;157;24;128;30947;0;219
3925;157;25;128;31466;0;228
3926;158;1;129;32230;0;228
3927;158;2;128;33186;101;8
3928;158;3;128;34240;95;36
3929;158;4;128;35270;45;252
3930;158;5;128;36162;95;174
3931;158;6;128;36834;0;241
3932;158;7;128;37242;0;139
3933;158;8;128;37383;0;25
3934;158;9;128;37283;95;19
3935;158;10;128;36987;95;234
3936;158;11;128;36542;96;44
3937;158;12;130;35993;0;167
3938;158;13;130;35374;0;58
3939;158;14;130;34719;0;168
3940;158;15;130;34056;100;115
3941;158;16;130;33421;95;240
3942;158;17;130;32852;95;181
3943;158;18;130;32377;0;121
3944;158;19;130;32018;0;17
3945;158;20;130;31780;0;34
3946;158;21;130;31656;101;10
3947;158;22;128;31625;0;132
3948;158;23;128;31660;100;11
3949;158;24;128;31733;0;240
3950;158;25;128;31814;0;66
3951;159;1;129;31879;0;132
3952;159;2;128;31912;101;9
3953;159;3;128;31901;95;248
3954;159;4;128;31844;45;141
3955;159;5;128;31742;95;88
3956;159;6;128;31604;0;111
3957;159;7;128;31433;0;195
3958;159;8;128;31242;0;4
3959;159;9;128;31037;95;149
3960;159;10;128;30828;95;195
3961;159;11;128;30624;96;247
3962;159;12;128;30432;0;214
3963;159;13;128;30266;0;48
3964;159;14;128;30151;0;188
3965;159;15;128;30133;100;14
3966;159;16;128;30271;96;149
3967;159;17;128;30629;95;251
3968;159;18;128;31245;0;7
3969;159;19;128;32112;0;109
3970;159;20;128;33167;0;144
3971;159;21;128;34303;101;105
3972;159;22;128;35388;0;70
3973;159;23;128;36305;100;66
3974;159;24;128;36973;0;125
3975;159;25;128;37354;0;251
3976;160;1;129;37451;0;94
3977;160;2;128;37302;101;44
3978;160;3;128;36954;95;201
3979;160;4;128;36459;45;166
3980;160;5;130;35863;96;133
3981;160;6;130;35205;0;144
3982;160;7;130;34519;0;223
3983;160;8;130;33839;0;53
3984;160;9;130;33199;95;17
3985;160;10;130;32639;95;223
3986;160;11;130;32190;96;29
3987;160;12;130;31871;0;125
3988;160;13;130;31685;0;194
3989;160;14;130;31620;0;129
3990;160;15;128;31652;100;3
3991;160;16;128;31747;96;95
3992;160;17;128;31871;95;218
3993;160;18;128;31992;0;244
3994;160;19;128;32084;0;81
3995;160;20;128;32127;0;124
3996;160;21;128;32111;101;209
3997;160;22;128;32034;0;31
3998;160;23;128;31904;100;0
3999;160;24;128;31728;0;235
4000;160;25;128;31518;0;25
4001;161;1;129;31284;0;47
4002;161;2;128;31041;102;160
4003;161;3;128;30799;96;167
4004;161;4;128;30566;45;138
4005;161;5;128;30352;96;230
4006;161;6;128;30169;0;206
4007;161;7;128;30035;0;72
4008;161;8;128;29990;0;27
4009;161;9;128;30094;95;226
4010;161;10;128;30414;96;36
4011;161;11;128;30993;97;107
4012;161;12;128;31838;0;90
4013;161;13;128;32894;0;126
4014;161;14;128;34058;0;15
4015;161;15;128;35191;101;229
4016;161;16;128;36164;96;177
4017;161;17;128;36876;95;123
4018;161;18;128;37282;0;179
4019;161;19;128;37387;0;29
4020;161;20;128;37229;0;126
4021;161;21;128;36865;101;118
4022;161;22;128;36354;0;16
4023;161;23;130;35742;100;15
4024;161;24;130;35061;0;255
4025;161;25;130;34343;0;47
4026;162;1;131;33616;0;86
4027;162;2;130;32920;103;1
4028;162;3;130;32291;96;131
4029;162;4;130;31765;45;64
4030;162;5;130;31363;96;223
4031;162;6;130;31094;0;113
4032;162;7;130;30948;0;222
4033;162;8;128;30905;0;177
4034;162;9;128;30936;95;47
4035;162;10;128;31012;96;125
4036;162;11;128;31102;97;216
4037;162;12;128;31183;0;200
4038;162;13;128;31237;0;255
4039;162;14;128;31253;0;15
4040;162;15;128;31226;101;88
4041;162;16;128;31155;96;12
4042;162;17;128;31043;95;155
4043;162;18;128;30895;0;167
4044;162;19;128;30720;0;248
4045;162;20;128;30527;0;54
4046;162;21;128;30326;101;209
4047;162;22;128;30125;0;162
4048;162;23;128;29931;100;67
4049;162;24;128;29748;0;40
4050;162;25;128;29584;0;131
4051;163;1;129;29456;0;4
4052;163;2;128;29393;103;42
4053;163;3;128;29451;96;94
4054;163;4;128;29699;45;36
4055;163;5;128;30198;96;75
4056;163;6;128;30974;0;246
4057;163;7;128;32004;0;1
4058;163;8;128;33200;0;177
4059;163;9;128;34434;96;232
4060;163;10;128;35562;96;84
4061;163;11;128;36464;97;223
4062;163;12;128;37068;0;220
4063;163;13;128;37351;0;248
4064;163;14;128;37339;0;236
4065;163;15;128;37079;101;76
4066;163;16;128;36635;96;138
4067;163;17;130;36061;96;75
4068;163;18;130;35405;0;89
4069;163;19;130;34700;0;149
4070;163;20;130;33981;0;195
4071;163;21;130;33279;103;105
4072;163;22;130;32628;0;117
4073;163;23;130;32061;101;161
4074;163;24;130;31605;0;114
4075;163;25;130;31277;0;41
4076;164;1;131;31075;0;95
4077;164;2;128;30990;103;110
4078;164;3;128;30996;96;109
4079;164;4;128;31065;45;127
4080;164;5;128;31169;96;26
4081;164;6;128;31281;0;43
4082;164;7;128;31377;0;139
4083;164;8;128;31441;0;203
4084;164;9;128;31466;96;68
4085;164;10;128;31444;96;46
4086;164;11;128;31379;97;238
4087;164;12;128;31273;0;35
4088;164;13;128;31135;0;152
4089;164;14;128;30971;0;243
4090;164;15;128;30790;102;164
4091;164;16;128;30601;96;224
4092;164;17;128;30412;96;34
4093;164;18;128;30229;0;11
4094;164;19;128;30057;0;94
4095;164;20;128;29906;0;198
4096;164;21;128;29787;103;182
4097;164;22;128;29728;0;20
4098;164;23;128;29777;101;170
4099;164;24;128;29999;0;36
4100;164;25;128;30455;0;237
4101;165;1;129;31177;0;195
4102;165;2;128;32151;103;251
4103;165;3;128;33302;96;120
4104;165;4;128;34508;45;255
4105;165;5;128;35630;96;153
4106;165;6;128;36545;0;207
4107;165;7;128;37174;0;71
4108;165;8;128;37486;0;128
4109;165;9;128;37499;96;237
4110;165;10;128;37259;96;252
4111;165;11;128;36825;97;73
4112;165;12;130;36252;0;171
4113;165;13;130;35589;0;18
4114;165;14;130;34873;0;67
4115;165;15;130;34139;102;200
4116;165;16;130;33422;96;242
4117;165;17;130;32761;96;90
4118;165;18;130;32189;0;188
4119;165;19;130;31736;0;245
4120;165;20;130;31416;0;180
4121;165;21;130;31231;103;97
4122;165;22;128;31164;0;181
4123;165;23;128;31189;101;51
4124;165;24;128;31275;0;37
4125;165;25;128;31389;0;151
4126;166;1;129;31501;0;9
4127;166;2;128;31590;104;201
4128;166;3;128;31646;96;249
4129;166;4;128;31661;45;213
4130;166;5;128;31638;96;241
4131;166;6;128;31581;0;88
4132;166;7;128;31494;0;1
4133;166;8;128;31378;0;140
4134;166;9;128;31236;96;94
4135;166;10;128;31074;96;187
4136;166;11;128;30896;97;9
4137;166;12;128;30711;0;238
4138;166;13;128;30527;0;54
4139;166;14;128;30353;0;135
4140;166;15;128;30193;102;76
4141;166;16;128;30057;96;190
4142;166;17;128;29958;96;91
4143;166;18;128;29935;0;227
4144;166;19;128;30043;0;80
4145;166;20;128;30349;0;131
4146;166;21;128;30910;103;29
4147;166;22;128;31747;0;255
4148;166;23;128;32818;101;151
4149;166;24;128;34029;0;241
4150;166;25;128;35241;0;178
4151;167;1;129;36315;0;233
4152;167;2;128;37138;104;139
4153;167;3;128;37648;96;131
4154;167;4;128;37833;45;9
4155;167;5;128;37727;96;210
4156;167;6;128;37385;0;27
4157;167;7;128;36867;0;19
4158;167;8;130;36224;0;143
4159;167;9;130;35501;96;25
4160;167;10;130;34739;96;28
4161;167;11;130;33976;97;31
4162;167;12;130;33254;0;233
4163;167;13;130;32609;0;98
4164;167;14;130;32077;0;76
4165;167;15;130;31679;102;34
4166;167;16;130;31418;96;22
4167;167;17;130;31288;96;148
4168;167;18;128;31269;0;31
4169;167;19;128;31334;0;96
4170;167;20;128;31450;0;212
4171;167;21;128;31583;104;194
4172;167;22;128;31706;0;213
4173;167;23;128;31803;102;157
4174;167;24;128;31865;0;117
4175;167;25;128;31885;0;137
4176;168;1;129;31863;0;116
4177;168;2;128;31803;103;158
4178;168;3;128;31710;96;57
4179;168;4;128;31586;45;138
4180;168;5;128;31440;96;42
4181;168;6;128;31277;0;39
4182;168;7;128;31105;0;122
4183;168;8;128;30927;0;199
4184;168;9;128;30750;96;118
4185;168;10;128;30578;96;201
4186;168;11;128;30417;97;40
4187;168;12;128;30274;0;56
4188;168;13;128;30173;0;210
4189;168;14;128;30155;0;192
4190;168;15;128;30288;102;172
4191;168;16;128;30641;96;8
4192;168;17;128;31268;96;126
4193;168;18;128;32171;0;168
4194;168;19;128;33296;0;18
4195;168;20;128;34527;0;229
4196;168;21;128;35718;104;249
4197;168;22;128;36731;0;138
4198;168;23;128;37467;102;211
4199;168;24;128;37876;0;7
4200;168;25;128;37962;0;94
4201;169;1;129;37764;0;152
4202;169;2;128;37338;103;82
4203;169;3;130;36745;96;250
4204;169;4;130;36039;45;2
4205;169;5;130;35267;97;47
4206;169;6;130;34471;0;175
4207;169;7;130;33692;0;161
4208;169;8;130;32972;0;206
4209;169;9;130;32347;96;187
4210;169;10;130;31843;96;193
4211;169;11;130;31475;97;80
4212;169;12;130;31243;0;7
4213;169;13;128;31132;0;149
4214;169;14;128;31116;0;133
4215;169;15;128;31168;102;31
4216;169;16;128;31264;96;122
4217;169;17;128;31377;96;235
4218;169;18;128;31488;0;251
4219;169;19;128;31583;0;90
4220;169;20;128;31655;0;162
4221;169;21;128;31699;104;54
4222;169;22;128;31714;0;221
4223;169;23;128;31699;102;52
4224;169;24;128;31656;0;163
4225;169;25;128;31586;0;93
4226;170;1;129;31490;0;254
4227;170;2;128;31373;102;237
4228;170;3;128;31240;97;99
4229;170;4;128;31097;45;159
4230;170;5;128;30947;97;60
4231;170;6;128;30796;0;68
4232;170;7;128;30649;0;176
4233;170;8;128;30522;0;49
4234;170;9;128;30447;96;69
4235;170;10;128;30483;97;107
4236;170;11;128;30702;97;70
4237;170;12;128;31174;0;191
4238;170;13;128;31932;0;184
4239;170;14;128;32957;0;189
4240;170;15;128;34160;102;219
4241;170;16;128;35407;96;185
4242;170;17;128;36551;96;53
4243;170;18;128;37462;0;104
4244;170;19;128;38066;0;198
4245;170;20;128;38335;0;212
4246;170;21;128;38292;104;17
4247;170;22;128;37985;0;117
4248;170;23;128;37475;102;219
4249;170;24;130;36818;0;227
4250;170;25;130;36069;0;243
4251;171;1;131;35272;0;212
4252;171;2;130;34468;101;17
4253;171;3;130;33700;97;10
4254;171;4;130;33009;45;32
4255;171;5;130;32425;97;10
4256;171;6;130;31971;0;225
4257;171;7;130;31657;0;166
4258;171;8;130;31479;0;243
4259;171;9;128;31419;97;22
4260;171;10;128;31453;97;56
4261;171;11;128;31549;97;153
4262;171;12;128;31674;0;181
4263;171;13;128;31799;0;51
4264;171;14;128;31903;0;155
4265;171;15;128;31969;101;66
4266;171;16;128;31994;96;86
4267;171;17;128;31979;96;71
4268;171;18;128;31929;0;181
4269;171;19;128;31850;0;102
4270;171;20;128;31745;0;253
4271;171;21;128;31619;101;227
4272;171;22;128;31475;0;237
4273;171;23;128;31316;101;179
4274;171;24;128;31145;0;162
4275;171;25;128;30969;0;241
4276;172;1;129;30793;0;66
4277;172;2;128;30624;101;252
4278;172;3;128;30477;97;101
4279;172;4;128;30383;45;210
4280;172;5;128;30400;97;23
4281;172;6;128;30600;0;127
4282;172;7;128;31056;0;73
4283;172;8;128;31809;0;61
4284;172;9;128;32843;97;172
4285;172;10;128;34075;97;129
4286;172;11;128;35373;97;152
4287;172;12;128;36578;0;240
4288;172;13;128;37558;0;200
4289;172;14;128;38222;0;99
4290;172;15;128;38538;101;5
4291;172;16;128;38523;96;241
4292;172;17;128;38230;96;203
4293;172;18;128;37724;0;111
4294;172;19;130;37066;0;220
4295;172;20;130;36310;0;229
4296;172;21;130;35498;101;27
4297;172;22;130;34670;0;119
4298;172;23;130;33861;101;176
4299;172;24;130;33113;0;92
4300;172;25;130;32459;0;203
4301;173;1;131;31930;0;185
4302;173;2;130;31541;101;151
4303;173;3;130;31295;97;156
4304;173;4;128;31179;45;241
4305;173;5;128;31170;97;28
4306;173;6;128;31237;0;255
4307;173;7;128;31347;0;109
4308;173;8;128;31469;0;231
4309;173;9;128;31581;97;185
4310;173;10;128;31665;97;13
4311;173;11;128;31713;97;61
4312;173;12;128;31724;0;231
4313;173;13;128;31699;0;206
4314;173;14;128;31639;0;146
4315;173;15;128;31550;101;158
4316;173;16;128;31430;96;32
4317;173;17;128;31284;96;142
4318;173;18;128;31120;0;137
4319;173;19;128;30943;0;215
4320;173;20;128;30761;0;33
4321;173;21;128;30582;101;210
4322;173;22;128;30409;0;191
4323;173;23;128;30253;101;136
4324;173;24;128;30137;0;174
4325;173;25;128;30114;0;151
4326;174;1;129;30259;0;42
4327;174;2;128;30658;101;30
4328;174;3;128;31371;97;230
4329;174;4;128;32403;45;190
4330;174;5;128;33685;97;249
4331;174;6;128;35084;0;21
4332;174;7;128;36434;0;96
4333;174;8;128;37581;0;223
4334;174;9;128;38416;97;135
4335;174;10;128;38889;97;97
4336;174;11;128;39008;97;217
4337;174;12;128;38817;0;184
4338;174;13;128;38378;0;255
4339;174;14;128;37758;0;145
4340;174;15;130;37011;101;10
4341;174;16;130;36187;96;202
4342;174;17;130;35329;96;109
4343;174;18;130;34480;0;184
4344;174;19;130;33681;0;150
4345;174;20;130;32973;0;207
4346;174;21;130;32389;101;234
4347;174;22;130;31948;0;202
4348;174;23;130;31650;101;4
4349;174;24;130;31486;0;250
4350;174;25;128;31432;0;194
4351;175;1;129;31461;0;224
4352;175;2;128;31544;100;151
4353;175;3;128;31658;97;6
4354;175;4;128;31782;45;79
4355;175;5;128;31895;97;244
4356;175;6;128;31981;0;233
4357;175;7;128;32023;0;20
4358;175;8;128;32017;0;14
4359;175;9;128;31962;97;55
4360;175;10;128;31860;97;209
4361;175;11;128;31721;97;69
4362;175;12;128;31555;0;62
4363;175;13;128;31367;0;129
4364;175;14;128;31162;0;179
4365;175;15;128;30948;101;65
4366;175;16;128;30733;96;101
4367;175;17;128;30528;96;151
4368;175;18;128;30356;0;138
4369;175;19;128;30259;0;41
4370;175;20;128;30301;0;83
4371;175;21;128;30563;101;191
4372;175;22;128;31111;0;128
4373;175;23;128;31968;101;65
4374;175;24;128;33095;0;72
4375;175;25;128;34387;0;89
4376;176;1;129;35696;0;124
4377;176;2;128;36869;100;121
4378;176;3;128;37782;97;10
4379;176;4;128;38361;45;27
4380;176;5;128;38586;97;49
4381;176;6;128;38483;0;105
4382;176;7;128;38106;0;238
4383;176;8;128;37523;0;165
4384;176;9;130;36795;97;45
4385;176;10;130;35978;97;249
4386;176;11;130;35115;97;151
4387;176;12;130;34245;0;204
4388;176;13;130;33411;0;135
4389;176;14;130;32654;0;143
4390;176;15;130;32009;101;109
4391;176;16;130;31503;96;108
4392;176;17;130;31150;96;9
4393;176;18;130;30942;0;216
4394;176;19;128;30861;0;133
4395;176;20;128;30879;0;151
4396;176;21;128;30963;100;79
4397;176;22;128;31081;0;98
4398;176;23;128;31206;101;68
4399;176;24;128;31314;0;76
4400;176;25;128;31389;0;151
4401;177;1;129;31424;0;187
4402;177;2;128;31415;100;21
4403;177;3;128;31363;97;222
4404;177;4;128;31268;45;75
4405;177;5;128;31140;97;254
4406;177;6;128;30983;0;0
4407;177;7;128;30806;0;78
4408;177;8;128;30615;0;142
4409;177;9;128;30417;97;40
4410;177;10;128;30220;97;99
4411;177;11;128;30034;97;168
4412;177;12;128;29881;0;173
4413;177;13;128;29806;0;98
4414;177;14;128;29878;0;170
4415;177;15;128;30173;101;55
4416;177;16;128;30757;97;126
4417;177;17;128;31649;96;252
4418;177;18;128;32804;0;36
4419;177;19;128;34115;0;72
4420;177;20;128;35432;0;114
4421;177;21;128;36601;100;107
4422;177;22;128;37501;0;143
4423;177;23;128;38063;101;40
4424;177;24;128;38272;0;149
4425;177;25;128;38160;0;37
4426;178;1;129;37782;0;170
4427;178;2;128;37200;100;197
4428;178;3;130;36474;97;235
4429;178;4;130;35660;45;134
4430;178;5;130;34802;97;92
4431;178;6;130;33946;0;160
4432;178;7;130;33136;0;115
4433;178;8;130;32413;0;157
4434;178;9;130;31814;97;165
4435;178;10;130;31361;97;222
4436;178;11;130;31061;97;177
4437;178;12;130;30904;0;178
4438;178;13;128;30870;0;142
4439;178;14;128;30924;0;196
4440;178;15;128;31034;101;152
4441;178;16;128;31167;97;25
4442;178;17;128;31297;96;155
4443;178;18;128;31405;0;167
4444;178;19;128;31478;0;240
4445;178;20;128;31509;0;16
4446;178;21;128;31493;100;100
4447;178;22;128;31434;0;196
4448;178;23;128;31336;101;199
4449;178;24;128;31206;0;223
4450;178;25;128;31052;0;69
4451;179;1;129;30879;0;152
4452;179;2;128;30692;100;63
4453;179;3;128;30496;97;120
4454;179;4;128;30302;45;129
4455;179;5;128;30121;97;255
4456;179;6;128;29984;0;21
4457;179;7;128;29941;0;233
4458;179;8;128;30061;0;98
4459;179;9;128;30419;97;42
4460;179;10;128;31066;97;180
4461;179;11;128;32007;98;102
4462;179;12;128;33179;0;156
4463;179;13;128;34467;0;169
4464;179;14;128;35722;0;149
